1503611601410,2, 0, -2, -2, 0, 0, -1, 0
1503611601423,2, 1, 0, 0, 0, 1, -1, 1
1503611601432,-4, -2, -2, 0, 0, -3, -1, -1
1503611601443,2, 6, -1, -1, -2, -3, -2, -1
1503611601454,4, 1, 2, 0, -1, -1, -2, -1
1503611601462,11, 4, -1, 0, -2, 0, 1, 2
1503611601473,1, -3, -2, -1, -1, -1, -2, -1
1503611601483,-4, -1, -2, -1, 0, -1, -1, 0
1503611601492,1, -1, -1, 0, 0, -1, 1, 2
1503611601499,-3, -2, -1, -1, -2, 0, -1, -2
1503611601514,0, 0, 0, 0, -2, 0, -2, -2
1503611601521,-2, -3, -2, 0, -1, 0, -1, -2
1503611601530,-2, -3, -2, -2, -2, 1, 0, -1
1503611601544,2, 2, -2, -2, -3, -1, 0, 0
1503611601552,-2, -1, 0, -1, -1, -2, -1, -1
1503611601560,-5, -2, -1, 0, -2, 0, -1, -2
1503611601574,5, 2, -3, -1, 0, -1, 1, -1
1503611601582,4, 1, 1, -1, 0, 0, 1, 1
1503611601590,-1, 1, 1, -2, -1, -2, -1, 2
1503611601603,-1, 3, -1, -2, -1, -1, -2, -1
1503611601612,2, 1, 0, 0, -1, -1, 1, 1
1503611601619,-3, -5, -2, 0, -1, -3, -1, -2
1503611601634,2, -2, -4, 0, -1, -1, 0, 0
1503611601645,-3, -3, -3, 0, -1, 1, -1, -2
1503611601650,-4, -1, 3, 0, -1, 0, -1, -2
1503611601663,-7, -3, 1, -1, -1, -2, -1, -2
1503611601672,-8, -3, -2, 0, -1, -1, 0, -2
1503611601680,-16, -6, -2, -1, 0, -1, -1, -3
1503611601695,-3, -5, 1, 0, -1, -1, -2, -2
1503611601702,-2, -3, -1, 0, -1, -2, -2, -3
1503611601712,-9, -3, -2, 0, -2, -1, -1, -3
1503611601724,4, -1, -1, 0, -1, -1, -2, 0
1503611601732,3, 4, 2, 0, -2, 0, -1, 0
1503611601739,-1, -2, -2, -1, -1, -1, 0, 1
1503611601754,5, 0, -2, -2, -1, -1, -2, 0
1503611601762,4, 4, -3, 1, -1, 0, 0, 0
1503611601770,1, 0, -1, -2, -2, -1, 0, 0
1503611601784,8, 2, 1, -2, 0, -1, 0, 1
1503611601792,1, 2, -2, -2, 0, 1, -1, 0
1503611601799,3, 0, 0, 0, -1, 0, 0, 0
1503611601815,-1, 0, -1, 0, 0, 1, -1, 0
1503611601822,0, -2, -1, -1, -1, -1, -2, 1
1503611601830,-3, -5, -1, 0, -1, -2, -1, 0
1503611601848,-1, -1, 0, 1, -1, -1, 1, -2
1503611601852,-9, -4, -1, 1, -2, 0, -1, -2
1503611601859,-2, -2, -1, -2, -2, 0, 1, -2
1503611601874,1, 3, -1, -1, 0, 0, -1, -1
1503611601883,1, 2, -4, -2, -1, -1, -1, 0
1503611601890,1, -3, -2, -2, -1, -2, 0, -1
1503611601904,1, 2, 0, -1, 1, 0, 0, -1
1503611601913,1, -1, 0, -1, -1, -2, -1, -1
1503611601920,-2, -2, -1, 0, -1, -1, 1, -1
1503611601921,-1, 4, 1, 0, -2, -2, -1, -1
1503611601934,1, 2, 0, -1, -2, 1, 0, 1
1503611601942,1, -1, -3, 0, -1, -2, -1, 1
1503611601950,1, -1, -1, 0, 0, -3, -1, -1
1503611601964,4, 0, 0, 0, 0, -1, -1, 0
1503611601972,2, -1, -1, -2, 0, 0, -1, 0
1503611601980,-4, -2, 0, -1, -1, -1, -1, -2
1503611601995,3, 1, -2, -1, -1, 1, -1, -1
1503611602002,-1, -2, -2, -1, 0, 1, -3, -1
1503611602010,2, 2, -1, -2, 0, -2, -1, -2
1503611602023,1, -1, 1, 0, 0, -1, -1, -1
1503611602024,-2, -1, -1, -1, -1, -1, -1, -1
1503611602032,2, 1, 1, 0, 0, -1, -1, 1
1503611602039,3, 0, -2, -1, 0, 0, 0, 0
1503611602056,-8, -3, 0, 0, 0, -1, 0, -2
1503611602062,-2, -4, 0, -1, 0, 0, -1, 1
1503611602070,-2, -2, -1, -1, -1, -2, 0, -2
1503611602084,-6, -2, -1, 0, 0, 0, -2, -2
1503611602092,-4, -2, -2, -1, -3, -1, -1, 0
1503611602099,0, -1, 1, 1, -1, 0, 0, -1
1503611602114,-1, -1, -1, -2, -1, -2, 0, -2
1503611602122,0, -1, 0, -1, 0, -2, 0, 0
1503611602129,-4, -6, -1, 2, -1, -1, 0, -1
1503611602143,1, 1, -2, -2, -3, -2, -2, -1
1503611602152,1, 0, -2, -1, -1, -3, -2, -2
1503611602159,-5, -4, -1, -1, 0, -1, -1, -1
1503611602175,-3, -4, 0, 0, 1, 1, 0, -2
1503611602182,-2, -2, -2, -1, -2, -1, 0, -3
1503611602190,-3, -2, -2, -2, -1, -2, -2, -1
1503611602203,0, 1, -2, -1, 0, -2, -1, -1
1503611602214,-2, -1, -1, -1, -1, 0, 0, -1
1503611602219,2, 2, -1, -2, -1, -1, 0, 1
1503611602234,6, 1, -1, -1, -1, 2, -1, 1
1503611602242,-1, -2, 0, -1, 1, 0, -2, 0
1503611602249,-3, -2, 0, -3, 0, -2, -1, 1
1503611602250,-1, 1, -1, 1, -2, -3, -2, -2
1503611602263,-3, -6, 0, -1, -1, -2, -1, -1
1503611602271,5, 1, 1, 1, -1, 1, 0, 0
1503611602281,-4, 1, -1, -1, 0, 0, 1, -2
1503611602294,-7, -2, -2, 0, 0, -1, -1, -3
1503611602301,1, -2, 0, -2, -1, -2, -2, 1
1503611602310,0, -1, -1, 0, -1, 0, -1, 2
1503611602323,-2, 1, -2, 0, -1, 0, -1, -2
1503611602331,0, 1, -1, -1, 0, -2, -1, -2
1503611602348,-1, -4, -1, -1, 0, -1, 0, -1
1503611602354,-1, 0, 0, -1, 0, -1, -1, 1
1503611602361,4, 3, 0, 0, -1, -1, -1, -1
1503611602377,-4, -2, -4, 0, -2, -1, -2, -1
1503611602383,-3, 0, -2, -2, -3, 2, 1, 1
1503611602392,2, 1, -1, -1, -3, 0, -1, 0
1503611602406,-2, -2, -2, -1, -1, -3, -1, -2
1503611602415,3, -4, 1, -1, 1, -2, -1, 0
1503611602422,-1, -1, 0, 1, 0, 0, 0, -1
1503611602436,-4, 0, -1, -1, 0, -2, 0, -2
1503611602443,2, -1, 1, -1, 1, -1, -1, -1
1503611602452,0, -1, 0, -1, -1, -1, 0, -2
1503611602466,-2, 1, -1, -1, -1, 0, 0, -1
1503611602474,-4, 0, -1, -2, -1, -1, -1, -1
1503611602482,2, 0, -1, 0, -1, -1, -1, -1
1503611602496,4, 6, 0, 1, -1, -1, -1, -2
1503611602503,-1, 0, 0, -2, -1, -1, -1, 0
1503611602512,1, 2, 1, 1, -1, -2, 1, 1
1503611602526,2, 1, -2, -1, -2, 0, 0, 1
1503611602534,4, 2, 1, -1, -1, 0, 0, 1
1503611602542,-2, -2, -2, -1, -2, -3, -2, -1
1503611602557,-5, -4, -1, -2, -1, 1, 0, -2
1503611602563,-2, 3, -2, 0, -1, 1, 0, -2
1503611602572,-3, 0, 0, -1, -1, 0, -1, -3
1503611602586,-2, 1, -1, -2, -1, -1, -1, -1
1503611602594,-1, -3, -3, -2, 0, 0, 0, -1
1503611602601,8, 4, 1, 0, -1, -1, -1, 0
1503611602617,-8, -5, -2, 0, -2, -2, -3, -3
1503611602624,-5, -3, 1, -1, 0, -1, 0, -3
1503611602631,2, 0, -1, -2, 0, -1, -2, -1
1503611602646,-1, -1, -1, -1, 1, -2, -1, -2
1503611602654,-5, -3, -2, -2, 1, -2, 0, -2
1503611602662,-3, -2, -2, -1, -1, 0, -2, 0
1503611602676,2, -2, -1, 0, 1, 1, 0, 0
1503611602677,0, 0, 0, 1, -1, -1, -1, -1
1503611602684,-1, -1, -2, 1, 0, -2, 2, -1
1503611602692,2, 0, 1, -1, -2, 0, -1, 0
1503611602706,-5, -3, -3, -1, -1, -1, -1, -1
1503611602717,5, 1, -4, -2, 0, -1, 0, -1
1503611602722,1, -2, 0, -1, -1, 0, 0, 0
1503611602736,-4, -1, -2, -2, 0, -2, -1, -1
1503611602743,-3, 0, -1, -1, 0, 0, -1, 0
1503611602752,1, -1, 0, -2, -1, -2, -1, -1
1503611602766,-4, -7, -2, 1, -2, -1, 0, -2
1503611602774,-1, -1, -1, -1, 1, 2, -2, 0
1503611602783,-2, -1, 1, -1, 1, -1, -1, -1
1503611602797,-2, -2, -1, 1, 0, -2, 0, -1
1503611602803,6, 0, -1, -2, 0, 0, -1, 0
1503611602811,0, -1, -1, 0, -1, 0, 0, 0
1503611602826,-7, -3, -1, 0, -2, -2, -1, -3
1503611602834,-2, -6, 1, -2, -2, 0, -1, -2
1503611602842,2, 1, -2, -1, -1, -2, 0, 0
1503611602857,-10, -2, -6, 1, 1, -1, 1, -1
1503611602863,-1, 0, -3, 0, -1, -1, -1, -1
1503611602871,5, 1, 0, 0, -2, -1, -1, 1
1503611602886,-8, -3, 2, 0, -1, 0, -1, -2
1503611602894,3, -1, 2, 0, -1, -1, 0, 0
1503611602901,-1, -5, -1, 0, -2, -1, 0, -2
1503611602918,2, 0, -1, 0, -2, -2, -2, -2
1503611602923,2, 2, -1, -1, 0, -1, -1, 0
1503611602932,2, 2, -3, 0, -1, -1, 0, 0
1503611602946,3, 0, 1, 0, 0, 1, 0, -1
1503611602954,0, 0, 1, -1, 0, 0, -3, -1
1503611602962,-3, 0, 1, 0, -1, 0, -1, 0
1503611602977,-4, 1, 1, 0, -2, 0, -1, -2
1503611602984,1, 0, -1, -2, -2, 0, 0, 0
1503611602992,0, 1, -2, -1, -1, -1, -1, -2
1503611603006,0, 0, -1, 1, -1, -1, 0, 0
1503611603014,-4, -3, 1, -2, -1, -1, -1, 0
1503611603022,2, -2, -1, -1, 0, 0, 1, -2
1503611603036,0, 2, 2, -1, 0, 0, -1, -1
1503611603044,-1, 0, 0, -2, -2, -1, -1, -2
1503611603052,-1, -3, -1, -2, -2, -1, -1, -1
1503611603066,8, 2, 0, 0, 0, 0, 0, -1
1503611603074,0, -1, 0, 0, 2, 0, 0, 0
1503611603081,-4, -3, -4, -2, -2, -1, -2, -3
1503611603096,0, -1, -3, -2, 0, -1, -1, -1
1503611603104,-3, -2, -2, 1, -1, 0, 0, -1
1503611603112,-3, -5, -1, -2, -1, -1, 0, -1
1503611603127,-3, 0, 2, -1, -3, -2, -2, 1
1503611603134,-2, -1, 2, 0, -2, -1, -1, -2
1503611603141,-1, 1, 1, -1, 1, -2, -1, 0
1503611603157,-4, -3, -2, -1, -1, -2, -1, -2
1503611603164,-5, -1, -2, 1, -2, -1, -2, -1
1503611603172,-2, -2, -1, 1, -1, -2, -1, -1
1503611603189,0, 1, -1, 0, -1, -1, -1, -1
1503611603194,0, -1, -2, -1, -1, 2, -1, -1
1503611603201,-1, -1, -2, 0, 0, -1, -1, -2
1503611603219,2, 1, 0, -1, -1, -1, -1, 0
1503611603224,0, 0, -1, -2, 0, -1, 1, 1
1503611603232,4, 1, -2, -3, -1, -2, -2, 0
1503611603246,-3, -5, 0, -1, -1, -1, -2, 0
1503611603257,-4, 0, 1, -1, -2, 0, 1, -2
1503611603268,0, 2, 0, -2, 0, -1, 0, 0
1503611603287,5, 1, -2, 0, -2, 0, -3, -1
1503611603299,2, 0, -2, -1, 0, 0, 0, 1
1503611603306,-6, -3, -2, -1, -1, 0, 0, -1
1503611603314,5, 0, -4, -2, -2, -1, -2, 0
1503611603328,1, -1, -2, 0, -1, -1, 0, 1
1503611603336,-4, -2, 0, 1, -1, 0, 1, -2
1503611603344,2, 2, 2, -2, 0, 0, 0, 0
1503611603359,0, 0, 1, 2, 0, -2, -2, 0
1503611603366,-4, -3, -1, -1, -1, -1, -1, -1
1503611603374,-2, 2, 0, -1, -1, 0, 0, -2
1503611603390,-1, -1, -2, -1, -2, -1, -1, 0
1503611603397,2, 0, -1, 0, -1, -1, 0, 1
1503611603404,2, -1, -1, -2, -2, 0, -3, 0
1503611603426,1, 0, 1, -1, 0, -1, -1, -3
1503611603441,0, -1, 2, 0, 0, -1, 1, 1
1503611603448,-5, -1, 0, -1, -2, -1, 1, -2
1503611603457,2, -2, -1, -2, -1, -1, 0, -1
1503611603464,-1, -3, -2, 1, 0, -1, -2, -2
1503611603480,-8, -8, -3, -3, 0, -1, -1, -2
1503611603488,3, 1, -1, 0, -2, 0, 0, -1
1503611603495,1, 2, -2, -1, -2, -1, 0, 0
1503611603508,0, -1, -5, 1, 0, -1, 0, -1
1503611603516,0, 0, -3, 0, 1, 1, -2, 0
1503611603524,1, 0, -2, 0, -1, -1, -1, 1
1503611603539,-2, -2, 0, -1, -1, 0, 0, -2
1503611603547,0, -2, 0, -1, -2, -1, -2, -1
1503611603555,2, 2, 1, 0, -1, 0, 0, 1
1503611603568,1, -4, 4, -3, -1, -1, -2, -2
1503611603583,1, 3, 1, -1, -1, -2, -2, -1
1503611603584,0, 2, 1, 0, -1, -1, -1, 0
1503611603599,-2, -3, 1, 0, 0, 0, -2, -2
1503611603606,1, 0, -1, -1, -1, -1, -2, -1
1503611603614,-1, -1, -1, -1, -2, 0, -1, 0
1503611603628,-2, 5, 0, -1, 0, 0, -1, -2
1503611603636,-1, 1, 0, 1, 1, -1, -1, -1
1503611603644,2, -1, -2, -1, 0, 0, -1, -1
1503611603659,1, 0, 2, -3, -2, -1, -1, -2
1503611603675,4, -1, -2, 0, -2, 0, -1, 0
1503611603689,-9, -6, -1, 0, -2, 0, 0, -1
1503611603697,0, 3, -3, -2, 0, -1, -2, 0
1503611603704,-2, -3, -1, 0, 0, 1, 1, -2
1503611603724,-1, 1, 1, -2, -1, 1, -1, 0
1503611603726,-1, -2, -4, -1, -1, 0, -2, -1
1503611603734,-2, -3, -2, -1, -2, 0, -1, 1
1503611603748,3, 1, -2, -2, -1, -2, 0, 0
1503611603757,-3, -4, -3, 0, -2, 1, -1, 0
1503611603764,-6, 0, -2, 0, -2, 0, -1, -3
1503611603779,0, 0, -2, -1, 0, -2, -3, -2
1503611603789,-1, 0, 0, 1, -1, -2, -1, 0
1503611603795,-1, 0, 0, 1, 0, -2, 0, -1
1503611603808,-1, 0, 0, -1, -1, -1, -1, -1
1503611603817,-2, -1, -1, 0, -1, 0, -2, -1
1503611603824,0, -1, 1, -1, 0, -1, 0, -1
1503611603839,-4, -2, -1, -3, 1, -2, -2, -2
1503611603846,3, 0, -1, -1, 0, -2, -1, -1
1503611603855,2, 1, -1, 0, -2, -2, 0, -3
1503611603868,0, -2, -2, 0, -1, 0, -1, -1
1503611603876,-1, -1, -1, -2, -1, 1, 0, 0
1503611603884,-1, -1, 0, 0, 0, -1, -1, -1
1503611603899,-2, -3, -1, -1, -1, -2, 0, 1
1503611603906,-3, -2, -1, -1, -1, 0, -2, 1
1503611603914,-2, -2, -2, -1, 0, -1, 0, 1
1503611603928,-4, 1, -1, 1, -1, -1, 0, -2
1503611603937,-4, -2, -2, 0, 1, 0, -2, -2
1503611603944,0, -3, -2, -1, -2, -1, 0, -1
1503611603959,0, -1, 2, 1, -1, -1, -1, 2
1503611603966,1, 1, 1, -1, -1, 0, -2, -2
1503611603974,-2, -2, 1, 0, -1, -1, 0, -1
1503611603989,1, 0, -2, -2, 0, -1, 0, 0
1503611603998,0, 3, -2, 0, 0, 1, 0, -1
1503611604004,0, 0, 2, 1, 0, -2, -1, 1
1503611604019,3, 0, -2, -3, -2, -1, 1, 0
1503611604026,-2, -2, -1, -1, -2, 0, -1, 0
1503611604034,2, 1, -1, -1, -1, -2, -2, -1
1503611604048,-2, -3, -1, 0, -1, -2, 1, -2
1503611604057,-1, -1, -2, -2, -1, 0, -1, 0
1503611604066,1, 1, 0, -1, -2, -1, 0, -3
1503611604079,-4, -4, 0, -1, -1, -1, 0, -2
1503611604086,2, 1, -3, -1, -1, 0, -2, 0
1503611604094,-3, -2, -1, -1, -1, 0, -1, -2
1503611604108,-2, -1, -4, 0, -1, 1, 0, -1
1503611604117,1, -1, -2, -1, 0, 0, 0, 0
1503611604132,-1, -3, 1, -1, -1, -1, -3, -2
1503611604139,-2, -3, 1, 0, -2, -1, -1, -2
1503611604148,-3, -2, -1, -2, -2, -1, -1, -1
1503611604154,-2, -1, 0, -1, -1, -1, -2, -1
1503611604169,-1, 1, -3, -1, 0, -1, 0, 0
1503611604176,0, 1, -2, 0, 0, -1, -1, 0
1503611604206,-1, -4, -3, -1, -1, -2, -2, -3
1503611604213,4, 1, -3, -2, -3, 0, 0, 0
1503611604215,-4, -4, 0, 0, 0, -1, -2, 0
1503611604222,-3, -7, -3, 0, -1, -2, -1, -1
1503611604229,-1, -1, -3, 0, 0, -1, 0, 0
1503611604236,-1, 1, 1, 1, -1, -1, 0, -1
1503611604252,0, 0, 3, -2, -1, 0, 0, 1
1503611604259,3, 1, 0, -1, 1, -2, 0, -1
1503611604267,-2, -1, -1, -2, -1, 0, 0, -3
1503611604281,1, 3, -2, -1, -2, -2, -2, -1
1503611604291,-1, -1, 0, -1, 0, 0, -1, -1
1503611604297,-2, -1, -3, 0, 1, -1, -3, 1
1503611604312,-3, -4, -1, 0, -2, 1, 0, -1
1503611604319,-1, 1, 1, -1, -2, -1, 0, -1
1503611604329,0, 2, 0, 0, 0, -2, -2, -2
1503611604341,0, -1, -1, -2, -1, -1, -2, -3
1503611604342,3, -2, 1, 0, 1, 0, 0, -2
1503611604350,3, 5, -2, 0, -1, 0, 0, -1
1503611604358,-1, 0, 0, -2, -1, -1, -2, -2
1503611604372,0, 2, 0, -1, -2, -2, -1, 1
1503611604379,-3, -3, 0, 0, -1, -1, 0, -1
1503611604387,1, 0, 0, 0, -1, -2, -2, 0
1503611604402,1, -3, -1, -1, -3, 0, -1, 0
1503611604409,-1, -2, 1, 0, 0, -1, -1, -1
1503611604416,1, 3, 0, -1, 0, 0, 0, -1
1503611604432,-1, 1, 0, -3, -1, 0, -1, 0
1503611604439,-3, -2, -4, -2, -1, 1, -2, 0
1503611604448,-3, -3, -2, 0, 1, -2, -1, 0
1503611604462,-2, 0, 1, -1, -1, -1, 1, -3
1503611604470,-1, -2, -1, -1, -2, 0, -2, -2
1503611604476,-4, -1, -3, -2, -1, 0, 0, 0
1503611604494,-1, 0, -4, -1, -1, -1, 2, 0
1503611604499,-3, -3, 0, 0, 0, -1, -1, -1
1503611604508,0, -1, -1, -2, -2, -2, -2, -1
1503611604521,-3, -3, -1, 0, -1, -1, -2, -3
1503611604530,-1, -1, -1, 0, -1, -1, -1, 1
1503611604537,-2, -2, 0, -2, -1, -1, 0, -1
1503611604552,-5, -1, 2, -2, 1, 0, -1, -2
1503611604560,6, -1, -2, -1, 0, -2, -2, 3
1503611604567,-1, -4, 1, 0, 0, 1, 1, -2
1503611604581,-2, -2, 0, 0, 0, 0, -1, -2
1503611604589,0, 2, -1, -1, 1, -1, -2, 0
1503611604597,1, 0, 0, 0, -2, -1, -1, -2
1503611604612,-3, -1, 1, 0, -1, -2, 0, -2
1503611604619,0, 1, 1, 0, -1, -1, -3, 0
1503611604628,2, -4, -3, -3, 0, -1, -1, 0
1503611604642,4, 2, -5, 0, 0, -3, 0, -2
1503611604649,1, -1, -1, -1, -2, -1, -1, 0
1503611604656,-6, -4, 3, -1, 0, 0, 0, -2
1503611604672,2, 0, 4, -2, 0, 0, 0, -1
1503611604679,1, 2, 0, -1, -2, 0, -1, 0
1503611604687,0, 1, -1, -1, 0, -1, -2, -2
1503611604701,-4, -5, 0, -2, 1, -2, 0, -1
1503611604717,-2, 0, -3, -1, -1, 0, 0, -2
1503611604732,0, -1, -1, -1, -2, 0, 0, 0
1503611604739,5, 2, -1, 1, -1, 2, 0, 2
1503611604747,-7, -1, -2, 1, 1, 0, 0, 0
1503611604762,-6, -3, 0, 1, 0, 1, -1, -3
1503611604770,4, 3, -1, 0, -1, 0, -1, 0
1503611604777,0, -1, -1, -3, -2, -1, 0, 0
1503611604794,0, -1, -1, 0, -2, -2, -1, -3
1503611604799,-7, -4, 0, -2, -2, -1, -2, -3
1503611604807,-1, -3, -2, -1, -1, 0, 0, -1
1503611604821,-1, 0, 1, 0, 0, -2, 1, 1
1503611604831,-1, -1, 1, 1, -1, 0, 0, -2
1503611604837,3, 5, -1, 0, -1, -3, 0, 1
1503611604862,7, 2, -1, -2, 0, 1, -2, -1
1503611604866,2, -1, -2, 0, -2, 0, 0, -1
1503611604869,-4, -5, -2, -1, 0, 0, -1, -2
1503611604882,-1, -2, -1, 0, -1, -1, -1, -1
1503611604890,-1, 0, -1, -1, 0, -1, -1, -1
1503611604897,-3, 0, 0, 0, 0, -1, 1, -2
1503611604912,-6, -5, 0, -1, -2, -3, -1, -1
1503611604919,-2, -1, 0, -1, -2, -1, -1, 1
1503611604929,3, 2, -3, -2, -1, -1, 0, 1
1503611604942,-1, -1, -2, -2, -2, -1, -1, -1
1503611604950,-1, -1, -1, 0, -1, 0, -1, -1
1503611604956,-3, -4, -2, -2, -1, -2, -1, -1
1503611604957,1, 0, 0, -2, 0, 0, -2, 1
1503611604972,0, -1, 1, -1, 1, -2, -3, 0
1503611604979,-4, -6, 0, 1, -1, -1, 0, -1
1503611604987,-2, -2, -1, -2, -1, 1, -1, 1
1503611605002,1, 0, 0, -2, 0, -2, -2, 0
1503611605010,-2, 0, -2, -2, -1, -1, -1, -1
1503611605017,0, -1, -1, -2, -1, 0, 0, 1
1503611605032,-1, -1, -1, -1, 0, 1, 0, 1
1503611605039,-1, -1, -2, 0, -1, 0, -2, -3
1503611605047,-4, -4, 0, 0, -1, -2, -1, -3
1503611605062,2, -1, 1, -1, 1, 0, -1, 0
1503611605070,2, 2, 1, 0, 0, 0, -1, -1
1503611605077,0, 2, 0, -1, -2, -1, 0, 0
1503611605092,3, -4, -2, -1, 0, -2, -1, 1
1503611605099,2, 0, -1, 0, 0, 1, -2, 0
1503611605107,-5, -1, -1, 1, -1, -1, -2, -1
1503611605122,-4, -2, -3, -2, 1, 0, -1, -2
1503611605130,-2, -2, -2, -2, 0, 0, 0, -1
1503611605144,0, -1, -4, 1, -1, -1, 1, 0
1503611605152,1, 2, -1, 1, -1, -2, -1, 0
1503611605159,-1, 0, -1, -1, -1, -2, 0, -1
1503611605174,2, 1, -1, 0, -2, 0, -2, 0
1503611605181,-1, 0, 1, -2, 0, -3, -3, 0
1503611605189,-1, -6, 0, 0, -1, -2, -3, -3
1503611605204,2, 0, 1, -1, 1, 0, 0, 0
1503611605213,-5, 1, 0, 0, -1, 1, 1, -1
1503611605219,1, 1, -1, 1, -3, -1, 0, -1
1503611605234,-1, 1, -1, -1, 1, -1, 0, -1
1503611605241,-1, -2, -2, -1, 0, -1, 0, 0
1503611605249,-2, 0, -1, -2, -3, 2, 0, 1
1503611605264,-2, -3, -1, -2, -2, 0, 0, -2
1503611605272,0, -3, 0, 0, -1, -2, -1, -1
1503611605279,1, 0, 1, -2, -1, -1, -1, 0
1503611605296,0, 1, -4, -2, -2, -3, 0, 1
1503611605301,-4, -3, -2, 0, -1, -1, -3, -3
1503611605309,3, 1, 0, -3, -1, -1, -1, -1
1503611605324,2, 0, -2, -1, -1, 0, -2, 0
1503611605332,-3, -1, -2, 1, 1, 1, -1, -2
1503611605339,-5, -6, -3, -1, -1, 0, 0, -2
1503611605354,2, 0, -2, -2, 0, -1, -2, -1
1503611605362,3, 0, 0, 0, -1, -1, -1, -2
1503611605369,-3, -2, 1, 0, -2, -2, 1, -4
1503611605384,-1, 1, 1, -1, -1, 1, 0, 1
1503611605392,0, -1, 0, 1, -1, 0, 1, -1
1503611605399,-1, 1, 2, -1, 0, 0, 0, 1
1503611605414,-1, 2, 0, -1, -2, -1, -1, -2
1503611605421,-1, 3, -4, -1, -1, 0, -2, -2
1503611605431,3, 0, -1, -1, -2, -1, -2, 1
1503611605444,10, 5, 1, 1, -2, -2, -1, 0
1503611605452,-1, 1, 1, -2, 1, 1, -2, 0
1503611605459,-4, -2, 3, 0, 0, -1, -1, -1
1503611605474,1, 1, -1, 1, -1, 0, 0, 0
1503611605481,0, 1, -4, -2, -2, 0, -1, -2
1503611605489,-2, 0, -1, -1, -1, 0, -1, -2
1503611605504,-2, -2, -1, 0, -1, -2, 0, -2
1503611605512,-3, -3, -2, -1, -1, -1, -1, 0
1503611605519,4, 0, 2, -2, -1, 0, 0, 2
1503611605534,-7, -2, -2, -3, 0, 1, -1, -1
1503611605542,-6, -4, -4, -1, 0, 1, -1, -2
1503611605549,1, -1, -2, 0, -1, -3, 0, -1
1503611605565,-4, -8, -5, -2, -2, -2, -1, 0
1503611605572,0, -1, -3, -1, 0, 0, -1, 0
1503611605579,-2, 0, 1, 0, 0, -2, -1, -3
1503611605594,2, -1, 3, 0, -1, -1, -1, -2
1503611605601,-2, 1, 0, -1, 0, 0, 0, -1
1503611605609,0, -3, 2, -1, -1, 0, -1, 1
1503611605624,3, 0, 0, -2, -1, 0, 0, -1
1503611605635,-2, -5, 0, -1, -2, 0, 0, -1
1503611605639,-3, -2, 0, -2, -1, -2, -1, -1
1503611605654,6, 1, 0, 0, -2, -1, 0, -1
1503611605661,0, -2, -1, -1, -2, -1, 0, 0
1503611605673,-3, -2, 0, -1, 0, -2, 0, -2
1503611605684,-2, 0, 1, 0, -1, -1, -1, 0
1503611605692,-3, 0, -3, -1, -1, -1, 0, -1
1503611605700,0, -2, -1, 1, -1, 0, -2, -1
1503611605714,1, 0, 1, 0, 1, -1, -3, 0
1503611605721,-2, -1, -1, -1, -3, -2, -1, -3
1503611605731,0, 1, -1, -1, 0, -2, -1, -1
1503611605744,-1, -1, -2, -1, -1, 0, -2, 0
1503611605752,-5, -4, -1, -1, -1, 0, -2, -1
1503611605759,1, 0, -3, -1, -2, -1, -2, -1
1503611605774,0, 1, -5, 0, -2, -1, -1, 0
1503611605781,-3, 1, -2, -1, 0, -1, 0, 0
1503611605789,-1, -2, 0, 0, -1, -2, -2, -2
1503611605804,2, 0, 1, 0, -1, 1, 0, 0
1503611605812,0, 2, 0, -2, -1, -1, 0, -2
1503611605819,-2, 0, -1, -1, 0, -1, -1, 0
1503611605834,2, -2, 0, -2, 0, 0, -1, -1
1503611605841,0, 2, -2, -2, -1, -1, 0, 0
1503611605849,1, -1, -1, -1, -1, -1, 0, 0
1503611605869,-2, -4, -2, 0, -2, 0, 0, 0
1503611605872,-2, -1, -1, -2, 0, -1, 0, -2
1503611605879,-3, 0, 2, 1, -1, -1, -1, -2
1503611605894,3, 1, -3, -1, -3, -1, -1, 3
1503611605902,-2, 0, -5, -2, -1, 0, -1, -1
1503611605909,-3, 0, -3, 1, -1, 0, -2, 0
1503611605924,-1, -3, -2, -1, 0, -1, 1, -1
1503611605935,-6, -2, 0, -2, 0, -4, -2, -3
1503611605939,-4, -1, 3, -1, -2, 0, -1, -2
1503611605954,-2, -2, 0, 0, -2, -1, -2, 0
1503611605961,-3, -2, 2, 0, 0, -2, -2, 0
1503611605969,7, 3, -2, -2, -1, 0, 1, 0
1503611605984,3, 2, 0, -1, 0, 0, -1, -1
1503611606002,-1, -1, -1, 0, -1, 0, -2, -1
1503611606014,0, -1, -2, 0, 0, 1, -2, -1
1503611606021,0, -1, 1, -1, -1, -1, -1, -1
1503611606029,5, 0, -3, -1, -1, 0, -2, 1
1503611606044,1, -2, -1, -1, -1, -2, 1, -2
1503611606052,0, 2, -1, -1, -1, 0, 1, -1
1503611606069,-4, -2, -2, -1, -1, -1, -2, 1
1503611606075,-1, -1, 1, -1, 1, -2, 0, -1
1503611606082,0, -1, -1, -3, 1, -1, -1, -2
1503611606097,-7, -3, -1, -1, -1, 0, -1, -1
1503611606104,1, -1, 0, 0, -1, -1, 0, 0
1503611606112,0, 1, 0, 0, 0, -2, -1, -1
1503611606126,-1, -1, -1, 1, -1, -1, -1, 1
1503611606127,-2, -1, -2, 0, -2, 0, -1, 0
1503611606136,-5, -8, -2, 0, -1, 1, 0, 0
1503611606142,-1, 1, -1, -1, -1, 0, 0, 2
1503611606156,0, -1, 0, 0, -1, -1, -1, -1
1503611606164,1, -1, -1, 0, 0, -2, -2, 0
1503611606172,-2, -3, -3, -1, 0, 0, -1, -2
1503611606186,-2, -2, -2, 1, 0, -1, 2, 0
1503611606194,-1, 0, -1, -2, -3, -3, -1, -1
1503611606201,0, -2, -2, -2, 0, -1, 0, -2
1503611606217,-1, 2, 1, -1, -3, 0, 1, 0
1503611606224,1, -1, -1, -2, 0, -1, -1, -3
1503611606234,-5, -1, -1, -1, 0, -1, -2, 0
1503611606246,1, 1, -1, 0, -1, 0, 1, -1
1503611606247,-2, -2, -2, 0, -3, -2, -1, -2
1503611606254,2, 0, -2, 0, -1, -2, -2, 0
1503611606261,-2, -2, -2, -3, 0, -1, -2, -1
1503611606276,-2, -4, -2, -2, -3, -1, -1, -2
1503611606284,0, -1, -1, 0, 0, -2, 2, -1
1503611606292,-3, -1, -1, 0, 1, -1, -1, -2
1503611606306,1, 0, -2, -3, 0, -1, -1, -2
1503611606314,-2, 0, 0, 1, -1, -1, -1, -3
1503611606321,1, 1, 1, 1, -2, 0, 0, 1
1503611606337,6, 2, 0, 0, 0, 0, -1, 0
1503611606344,1, 3, 0, 1, -1, 0, -1, 2
1503611606352,-1, 1, 2, 0, -1, 0, 0, 1
1503611606369,-4, -2, 2, -2, -1, -1, 0, -1
1503611606374,6, 3, 1, -2, -1, -1, 0, 1
1503611606381,-4, -1, 1, -1, -2, 0, -3, -1
1503611606396,-1, -2, -1, -2, 0, -1, 1, 0
1503611606404,-4, -1, -4, 0, -1, -1, -1, -1
1503611606412,-2, -3, -2, -1, -1, -1, -1, -1
1503611606427,2, 1, 0, -2, 0, 0, 0, -2
1503611606439,-3, 0, 0, -2, 0, -1, 1, -1
1503611606442,0, 1, 0, 0, -1, 1, -1, 0
1503611606456,-2, -1, -2, -1, 0, -1, -1, -1
1503611606464,0, 0, -2, 1, 0, -1, -1, 0
1503611606473,-2, -3, 0, -2, -2, -1, 0, -1
1503611606487,0, -4, -3, -1, -1, -2, 0, -3
1503611606494,-2, -1, -4, 1, -1, 0, -2, -1
1503611606503,-7, 1, -3, -2, -1, -1, -1, 0
1503611606516,-1, 0, -1, -1, -1, 0, -2, -2
1503611606524,0, -4, 0, 0, -2, 0, -1, 1
1503611606532,-5, -3, 2, 0, 0, -1, -1, 0
1503611606546,4, 3, 1, 1, 1, -1, -1, 0
1503611606547,0, -1, 1, 0, -1, -1, 0, -1
1503611606554,0, -2, -2, -1, -4, 0, -1, -2
1503611606561,0, -1, 1, -1, 1, -1, -2, -1
1503611606578,-1, 0, -1, 1, 0, -1, 0, 0
1503611606584,-3, 1, -3, -1, -1, 0, -2, -3
1503611606592,0, 0, -2, -1, 0, -1, 0, -1
1503611606607,-3, -3, 0, 0, -1, 0, -1, 0
1503611606615,6, 2, 0, -1, -1, 0, -1, 0
1503611606621,-1, 0, -1, 1, 0, -2, 0, -1
1503611606638,-1, -1, 0, -1, 0, -1, -1, -2
1503611606645,0, -2, -1, 0, 0, -1, -1, -1
1503611606652,0, 2, 0, 0, -1, -1, -1, 1
1503611606667,-5, -8, -1, -1, -1, -2, -1, -1
1503611606670,5, 0, -1, -2, 0, -1, -1, 1
1503611606675,-1, -1, -3, -2, 0, -1, -1, -1
1503611606681,2, -2, -1, 0, 0, 0, 1, 0
1503611606696,-4, -1, 1, 0, -1, -1, -1, -2
1503611606705,0, -1, -1, -1, -2, 0, -1, 0
1503611606712,-1, -4, -2, 1, -1, 0, 1, 0
1503611606727,-4, -2, 1, 0, -1, -1, -1, -1
1503611606737,0, -2, -1, -1, -2, 0, 0, 0
1503611606741,2, 0, -3, -1, -1, -1, -1, -1
1503611606759,1, 2, -1, -1, 0, -1, -1, 0
1503611606765,4, 1, -1, -1, -1, -1, -1, -1
1503611606773,0, 0, -2, 1, -1, -2, -1, 0
1503611606786,-4, -3, -3, 0, 0, -2, -2, -2
1503611606787,1, -2, -1, -2, 0, 0, 0, 0
1503611606794,3, 0, -1, -1, -1, 0, -2, -1
1503611606804,-2, 0, -3, -2, -1, -2, 1, -2
1503611606816,-1, -5, -1, -1, -1, -1, 0, -2
1503611606824,-2, -1, 0, 0, 1, -1, -1, 0
1503611606832,-3, -2, -1, 1, 1, -2, -2, -1
1503611606846,-3, -2, -2, 0, 0, 0, 0, -1
1503611606854,-3, 1, 1, -2, -2, 0, 1, -1
1503611606861,-2, 0, 0, 0, -1, 0, 0, 1
1503611606876,-1, -4, -3, 0, -1, -1, -3, -2
1503611606884,2, 0, 0, -1, 0, -1, -1, 0
1503611606892,4, 1, -2, -2, 1, -1, 0, -1
1503611606907,5, 2, -2, 1, -2, 0, -3, -1
1503611606914,-2, 0, -2, -1, -2, 0, -1, -2
1503611606921,-3, -1, -2, -1, -2, 0, 0, -2
1503611606938,-3, -2, -3, -1, -2, -1, -2, -2
1503611606944,-5, -2, 0, -1, -1, 0, -1, -2
1503611606952,-3, -2, 0, 1, 0, -1, 0, -1
1503611606966,-8, -2, 0, -1, 1, -1, -1, 0
1503611606974,4, 1, -2, -1, -2, -2, 0, 1
1503611606981,0, 0, 0, -2, -1, -1, 1, -1
1503611606996,-2, -1, -1, -1, 0, 1, 0, 0
1503611607004,6, 4, 1, -1, 0, -1, -2, 0
1503611607019,-1, 1, 2, 0, 0, 0, 1, 0
1503611607026,1, -4, -1, -1, -1, 1, -1, -1
1503611607034,0, 0, 1, -1, 1, -1, 0, -1
1503611607048,0, -1, 1, 1, -2, 0, 0, -1
1503611607056,-4, 0, -1, -1, -1, -1, -2, -1
1503611607064,-1, -2, 0, 0, -1, -2, -2, 0
1503611607079,2, 1, 0, 0, -1, -2, -2, -1
1503611607086,5, 0, -2, 0, 1, -1, 0, -1
1503611607094,3, 2, -1, -1, -2, 0, 0, 0
1503611607109,0, 0, -1, -2, -1, -1, 0, 1
1503611607116,-3, -3, -2, -1, -1, 1, -1, -1
1503611607124,-4, 2, 1, -2, -1, -2, -3, 0
1503611607139,-2, -1, 0, -2, -2, 0, -2, -2
1503611607147,-3, -2, -2, 0, -1, 1, 0, -2
1503611607154,-1, 0, 0, -2, 1, -1, -2, -3
1503611607168,-3, -2, -2, 0, -1, -2, 0, 0
1503611607176,0, -1, -1, 0, -2, -2, 0, 1
1503611607184,-2, -3, -1, -1, -1, -1, 0, -3
1503611607199,0, 2, 2, -1, -2, 0, 0, 0
1503611607206,-1, -2, -2, -2, -1, 0, -2, 0
1503611607214,1, -1, -1, -1, -1, -2, -1, 0
1503611607228,2, 2, -1, -1, -2, 1, 1, -1
1503611607236,-2, -3, -1, 0, 0, 0, 0, -2
1503611607244,0, -1, -1, -1, -1, -2, -1, 0
1503611607266,-4, -4, -2, -1, 1, 0, -1, -1
1503611607267,-2, 1, -1, 0, 0, -1, -2, -1
1503611607274,0, 1, -1, -1, -1, -2, -2, 0
1503611607288,-1, -1, -2, -1, -1, 0, -1, 0
1503611607296,-4, -4, -2, 1, -2, -1, -2, -2
1503611607307,-3, 0, 0, -1, -1, -1, -2, -2
1503611607319,-4, 0, -1, -2, -1, 0, -1, 1
1503611607326,-2, 0, -1, -1, 0, 0, 1, 0
1503611607334,1, -1, 1, -1, -2, -1, 0, -1
1503611607348,-1, -3, 0, -1, -2, 0, -2, 0
1503611607356,0, -2, -1, 1, -1, 0, -1, 0
1503611607364,-1, -1, -1, -2, 0, 0, -1, -1
1503611607379,-6, -5, -1, 0, -1, -3, 0, -1
1503611607386,0, -1, -1, -1, 0, -2, 0, 0
1503611607394,-2, -1, 0, 0, 1, 0, -1, -3
1503611607408,-3, -2, 0, -2, -1, -2, -1, -2
1503611607416,-2, -3, -1, -4, 0, -1, -2, -2
1503611607424,-2, -3, -3, -1, -2, 0, -2, -1
1503611607440,5, 1, -1, -1, -1, 0, -1, 2
1503611607446,-2, -2, 0, 0, -1, 0, 0, 0
1503611607454,-3, -3, -3, 0, -1, 0, -1, -2
1503611607468,0, 0, -2, 1, -1, -1, 0, 0
1503611607478,2, 1, 0, 0, 0, -1, -2, -1
1503611607484,3, 2, 0, -1, 0, -1, 1, 0
1503611607499,1, 4, 0, 0, -2, -2, 0, -1
1503611607507,-1, 1, 1, -1, -1, -2, -2, 0
1503611607516,0, 2, 0, -1, -1, -3, 0, -1
1503611607528,-9, -5, -2, -3, 0, -1, 0, -3
1503611607536,1, 1, -1, -2, -2, -1, -2, 0
1503611607544,-2, 0, 0, 0, 1, 0, 0, -2
1503611607559,3, 0, -2, 0, 0, -1, -2, 0
1503611607566,3, 1, 0, -1, -3, 0, 0, 1
1503611607576,-7, -7, 1, -1, 0, 0, 1, -2
1503611607588,0, 0, -1, 0, 0, -1, -1, -2
1503611607596,-3, -1, 0, 0, -1, 1, 0, 0
1503611607604,2, -2, -1, 1, -2, 0, 0, 0
1503611607619,1, 0, -1, -1, -2, 0, -1, -2
1503611607626,-3, -5, 0, -2, -2, -1, -1, -2
1503611607627,3, 2, -1, 0, -2, 1, -1, 1
1503611607634,4, -1, 0, -1, 0, -2, 0, 0
1503611607650,1, 3, -1, -1, 0, -2, 0, -2
1503611607656,-4, -1, 0, 0, 1, 1, -2, -1
1503611607664,0, -2, -1, -1, 1, -1, -2, -3
1503611607679,-5, -1, -1, 0, 0, -1, -2, -1
1503611607686,-2, 0, -2, -1, -1, 0, -1, 0
1503611607694,-2, -4, -4, -2, -2, 0, -1, 0
1503611607708,1, -1, -1, -1, -2, -2, -1, -2
1503611607717,0, 1, -1, 0, -2, 0, 0, -2
1503611607724,0, -1, -1, -2, -1, -1, -1, 0
1503611607739,6, 8, 1, 0, -1, 1, -1, 1
1503611607746,-3, 0, 1, 1, 1, -2, -2, 0
1503611607754,-2, -1, -1, -2, 0, -1, 1, -3
1503611607768,-1, -2, 1, 1, -2, 0, 0, 1
1503611607776,-2, -3, -2, -1, -1, -2, -1, 1
1503611607784,4, 0, 0, 0, 0, -1, 1, 0
1503611607799,1, -1, -2, -1, -1, 0, -1, -2
1503611607808,0, -3, -1, -1, -2, -1, -1, 1
1503611607814,1, -2, 1, 0, 0, 0, 0, 0
1503611607828,-3, -1, -1, -2, 1, -1, 0, 1
1503611607836,1, -2, -1, -2, -1, -2, -3, 1
1503611607844,-2, -2, 0, -1, -2, -2, -5, -2
1503611607859,-3, 0, 0, -2, -1, -1, -2, 0
1503611607867,-1, -1, -1, -2, -2, 1, -2, -3
1503611607877,0, -2, -3, -1, 0, 1, 0, -2
1503611607888,-1, -2, -2, -4, -2, -1, 0, -1
1503611607896,-1, 1, 1, -6, 7, -3, -1, 0
1503611607904,0, 0, -2, -2, 2, 2, 9, 0
1503611607919,-4, -2, -1, -1, -6, -4, -6, -2
1503611607926,-1, -1, 0, -1, -5, -2, -2, -2
1503611607942,0, -1, -1, 2, 0, 2, 3, -1
1503611607948,-1, -2, -1, 0, -2, -1, -2, -1
1503611607956,-1, -2, -1, 0, 1, -2, -2, -2
1503611607971,0, 0, 0, 0, 0, -1, -4, -3
1503611607979,-1, -1, -2, -2, -3, 1, 2, 0
1503611607986,1, 0, 0, 3, 1, 0, -3, -1
1503611608001,0, 0, -1, -1, -2, 0, 0, -1
1503611608011,-4, -2, -2, 0, 0, -1, -2, -3
1503611608017,-1, -1, -2, 0, 0, -1, 0, -1
1503611608031,0, 1, -1, -1, -1, 1, -1, -1
1503611608039,1, -1, 0, 1, 0, 0, 1, -1
1503611608047,0, 0, 0, 0, -1, 0, -1, -1
1503611608061,-2, -2, 0, 1, -2, 0, -2, -1
1503611608068,0, 0, -1, -2, 1, -1, -1, -1
1503611608077,-1, 1, 0, 0, -2, 0, 1, -1
1503611608091,-5, -2, -3, 0, -2, -1, 1, 0
1503611608099,0, 3, 0, 1, -2, -1, -2, -3
1503611608106,-2, -1, -1, -2, -1, -1, -1, 0
1503611608121,1, 1, 0, 0, -2, -1, -2, 0
1503611608128,0, -1, -1, 0, 1, 0, -2, 1
1503611608136,1, -2, -1, -2, -1, -1, 0, 0
1503611608151,0, 0, 1, -1, 0, -2, -1, 2
1503611608159,-2, -2, -1, 0, 0, 0, -2, 0
1503611608167,0, -1, 0, -1, 0, -1, -1, 0
1503611608182,-3, -1, -1, -1, 0, 0, -1, -1
1503611608188,-1, 0, 0, -1, -3, -2, -1, -2
1503611608196,-2, -2, -1, -1, 0, -1, 0, 0
1503611608211,-1, 3, -2, 1, -1, 0, 0, -1
1503611608219,0, -2, -3, 0, 0, 0, 0, -2
1503611608226,1, -2, -2, -1, -1, -2, -1, 1
1503611608243,-1, -1, -1, -1, -1, -1, 0, 0
1503611608248,-1, 1, -2, 0, -1, 1, 0, -2
1503611608256,-2, -3, 1, 0, -2, 0, -2, -1
1503611608271,-1, -2, 1, -1, 0, 0, -1, 0
1503611608279,-1, 0, -2, 0, -1, -1, -2, -1
1503611608287,-2, -1, -1, -2, -1, -1, -1, -2
1503611608301,0, 0, -1, -2, -2, 0, 2, -2
1503611608308,3, 0, 0, -1, -2, 0, 0, 1
1503611608317,0, 0, -2, -1, -2, -1, -1, -2
1503611608331,0, -1, -1, 0, -1, -2, 0, -1
1503611608339,1, -2, 0, -1, 0, -1, -2, -1
1503611608350,-1, -2, 0, -1, -1, 1, 0, 0
1503611608361,-2, -1, -1, 0, -1, -2, -1, 0
1503611608368,-1, 0, -1, 0, -2, -2, -2, -2
1503611608378,-1, -1, -2, -2, 0, 0, -2, -3
1503611608379,0, 0, 1, 0, 0, -1, -1, 0
1503611608391,0, -1, -3, -2, 0, -1, 0, 0
1503611608399,-2, -2, -3, 1, 0, -3, 0, -2
1503611608406,-1, 0, 0, 0, 2, -1, -1, -3
1503611608421,-1, -2, -3, -2, 1, 1, 0, 0
1503611608428,-2, -1, -1, 0, -1, -2, -2, -1
1503611608436,-1, 0, -2, -2, -1, -2, 0, -1
1503611608451,-1, -2, -2, -1, 0, 1, -2, -2
1503611608459,0, 0, -1, -1, -2, -2, -3, 1
1503611608466,-2, -1, -1, 0, 0, -2, -1, 2
1503611608482,0, -1, -1, -1, -1, 0, -1, -1
1503611608488,-1, -1, -1, 1, 0, 1, -2, -2
1503611608496,0, 0, -1, -1, 0, -1, -1, -3
1503611608513,-3, -5, -1, 0, -2, -2, -1, -1
1503611608519,-1, 0, -1, 0, -2, 0, 0, 0
1503611608526,0, 1, 2, -1, 0, 1, -1, 0
1503611608549,-3, 0, 1, -2, -1, -1, -2, 0
1503611608550,3, 1, 1, -1, -3, -1, 0, 1
1503611608564,0, 0, -2, 2, 8, -2, 0, -1
1503611608570,-2, 0, 0, 0, 5, 1, -1, -3
1503611608580,0, -1, 0, 0, -2, 0, -1, -1
1503611608587,7, 4, -1, -3, -5, 0, 0, 0
1503611608601,-6, -1, -1, -1, -1, -2, 0, -2
1503611608608,1, -1, -2, -2, -1, -1, 0, -2
1503611608618,-9, -6, -2, -1, -2, 2, 0, -3
1503611608630,-3, -2, 0, -2, 2, -1, 0, -2
1503611608639,5, 2, 1, -2, -1, 0, -1, 0
1503611608648,-5, -3, -1, -1, -1, 0, -2, -3
1503611608661,3, 1, 1, -1, -2, -2, 0, 1
1503611608668,-2, -1, -2, 1, -3, -1, 0, 0
1503611608676,0, 1, 0, -1, -3, -1, -1, -2
1503611608691,-2, 0, 0, -2, 1, -1, -1, 0
1503611608699,-1, -2, -3, -1, -1, 1, -2, 1
1503611608707,-5, -3, -2, -3, -4, 0, -1, -2
1503611608721,0, 1, 1, 0, 0, 2, 2, 1
1503611608728,0, -1, -1, 3, 9, 1, 0, -2
1503611608736,-7, -3, -2, 5, 3, -1, -1, -3
1503611608751,1, 0, -1, -3, -5, -2, -1, -1
1503611608759,15, 4, 0, -4, -6, -4, -1, 1
1503611608766,-3, 0, -1, -1, 0, -1, -1, -3
1503611608781,-3, -4, 0, -2, -2, -2, -2, -3
1503611608788,15, 3, -1, -2, -1, 0, -1, 2
1503611608796,7, 1, 1, 0, 0, 1, 0, -1
1503611608810,9, 2, 1, -1, -3, -1, -1, 5
1503611608819,6, -1, -4, -2, -7, -4, -4, -2
1503611608826,0, 2, 1, 5, -1, -3, -2, 1
1503611608841,-6, 0, 4, 4, 1, -1, 1, -2
1503611608849,-9, -4, 0, 1, -7, -2, -1, -4
1503611608864,-13, -9, -6, -9, 8, -4, 2, 3
1503611608870,-1, 1, 5, -2, 20, 1, -1, -1
1503611608880,-1, -2, -2, -1, -3, 0, -1, -2
1503611608893,-3, -5, -8, -4, -12, -2, 0, 0
1503611608901,-5, -5, -9, -5, -4, -3, -3, -2
1503611608908,1, 16, 26, 7, -2, -2, -3, -3
1503611608924,-3, -1, 1, -1, -10, 1, -1, -2
1503611608930,-4, -4, -10, 3, 3, -1, 2, -1
1503611608939,5, 14, 15, 5, -12, -10, -3, -1
1503611608953,-2, -4, -12, -13, 22, -16, -3, -1
1503611608961,-5, -13, -11, -1, 6, 1, -1, -2
1503611608969,-2, -2, 4, 6, 38, 21, -2, -1
1503611608984,-2, -6, -3, -8, -2, 0, -1, 1
1503611608990,-2, -5, 8, -7, -29, -5, -2, -1
1503611608999,-1, 0, -1, -4, 23, 15, 1, 0
1503611609015,0, -6, -7, -2, 3, -2, -3, 0
1503611609021,2, 7, 9, 15, -1, -3, -1, 1
1503611609029,-4, -23, -17, -1, -3, 5, -1, 1
1503611609044,3, 11, 18, -8, -1, 2, 0, 2
1503611609051,-6, 0, -12, -6, -31, -14, -4, -6
1503611609059,6, 6, -13, -7, -16, 4, -2, -1
1503611609073,3, 4, 7, 5, 4, -7, -3, 0
1503611609082,0, 4, 1, 2, -2, -3, -1, 1
1503611609090,-2, -11, -13, -5, -16, -4, -3, -3
1503611609104,-3, -32, -21, -6, 6, -3, -1, -3
1503611609111,14, 58, 38, 4, 5, 4, 3, 1
1503611609119,-6, -2, -1, 5, 4, 1, -2, -4
1503611609133,-4, -1, 5, 5, -9, 8, 8, 0
1503611609141,-13, -23, -13, -9, -26, -20, -9, -9
1503611609154,2, 32, 8, 0, 0, -2, -4, -6
1503611609164,-8, -15, -5, 3, -11, -2, 5, 4
1503611609171,17, -2, -1, -9, 0, -7, -8, 0
1503611609179,11, 21, 6, -9, -10, -11, -12, -2
1503611609193,-7, -28, -12, 11, 26, 14, 7, 8
1503611609201,16, 13, 8, -1, 10, -1, -1, 1
1503611609209,-22, -16, 23, 26, 38, 35, 2, -14
1503611609224,-5, 43, 7, -5, -27, -29, -9, -2
1503611609230,-2, 24, -7, -13, 0, 6, -2, -18
1503611609239,-42, -27, 5, -6, 12, -7, -34, -64
1503611609253,6, 14, -40, -47, -95, -97, -75, -18
1503611609261,52, 73, -14, -5, 28, 3, -10, 3
1503611609269,-6, -128, -68, -12, -29, -33, -8, -5
1503611609286,-69, -15, 27, -14, -54, -21, 4, 18
1503611609291,-11, -7, -22, -38, -73, -52, -17, -9
1503611609299,11, -22, 3, 20, 24, 14, 5, -9
1503611609313,0, 7, 24, 34, 60, 51, 30, 15
1503611609321,1, -7, -16, -16, -3, 8, 13, 17
1503611609329,23, 20, 21, 23, 23, 23, 14, 7
1503611609344,-18, -28, 0, 12, 7, 9, 10, 7
1503611609351,-1, 15, 14, -5, 5, 25, 18, 8
1503611609359,9, 1, 11, 49, 67, 32, 9, 6
1503611609373,-6, 11, 8, -11, -4, 14, 8, 6
1503611609383,15, 1, -4, -7, -16, -3, 2, 4
1503611609397,12, 12, 10, 13, 3, -1, 7, 9
1503611609404,8, 9, -1, -1, -4, 4, 7, 4
1503611609412,-9, -2, 1, 1, 3, 6, 7, 1
1503611609419,-7, -8, -7, -4, -3, 5, 1, 1
1503611609435,-2, 10, -1, -1, 10, 9, 4, 0
1503611609441,12, -6, 1, 0, 1, 1, 3, 5
1503611609457,-8, -7, -4, 1, 5, 0, 2, -1
1503611609464,4, -4, -6, -21, -15, 0, 0, 0
1503611609472,-7, -3, 2, 2, 18, 2, -2, -3
1503611609479,7, 0, 6, 1, -3, -2, -1, 3
1503611609494,5, -1, 0, 0, -8, -5, 4, 14
1503611609501,1, -6, -7, -15, -4, -3, 4, 2
1503611609520,0, 2, 1, -4, -7, 1, 1, -9
1503611609524,-7, -19, -11, 7, 4, 7, 0, -3
1503611609532,0, 6, 6, -4, -3, 5, 1, 3
1503611609539,1, 0, -4, 5, -2, -3, -4, -4
1503611609555,-9, 6, 10, 7, -2, 2, -4, -10
1503611609561,1, 0, -1, -1, 0, 1, 1, 2
1503611609577,8, -5, -8, 2, -5, -3, 3, 1
1503611609585,-11, 5, 11, 10, 3, 3, -5, -6
1503611609593,4, -5, -4, -6, 5, 10, 15, 3
1503611609599,15, 2, -4, 2, -7, 0, 6, 6
1503611609614,-19, -7, -5, -1, 18, -5, 0, -2
1503611609622,14, 5, 3, 7, 15, 9, 6, 1
1503611609637,22, 6, -3, -5, 3, -11, -5, 3
1503611609644,-3, -4, -2, -9, -15, 1, -3, -1
1503611609654,3, -1, -4, -11, -4, -11, 2, 1
1503611609660,11, -1, -4, -11, -16, -6, -13, 3
1503611609674,-2, -1, -2, 5, -5, -18, -17, -3
1503611609681,-14, -4, -3, 0, -1, -5, 1, -2
1503611609697,-8, -1, -1, 4, -6, -3, 1, -3
1503611609704,12, 4, 1, 1, 11, 2, -2, -5
1503611609712,-67, -31, -9, 0, -8, -5, -8, -20
1503611609719,-8, -2, 0, 5, 5, 6, 4, -3
1503611609734,15, 9, 5, 6, 2, 9, 10, 4
1503611609741,-3, -10, -6, -6, 2, -13, -2, 3
1503611609757,-8, -1, 4, -1, 7, 9, 10, -6
1503611609766,-61, -27, -6, -2, -11, -11, -10, -26
1503611609772,-7, -4, -2, 3, 15, 2, -2, -10
1503611609787,5, 6, 3, 3, 9, 8, -3, 1
1503611609794,11, 5, 1, -3, -7, -1, -6, 6
1503611609801,-4, 4, 1, 2, 9, -4, -3, -16
1503611609818,20, 10, 2, 1, -6, -3, -10, 14
1503611609824,9, 3, -1, -4, -14, 0, 7, -1
1503611609839,4, 1, -1, -4, -8, -6, -6, -4
1503611609846,1, 3, 0, -1, 0, -7, 1, 7
1503611609861,5, -2, -2, -2, 5, 1, -4, 2
1503611609862,10, 0, 0, -2, 3, -1, 1, -18
1503611609877,-2, -10, -6, -8, -8, 4, -10, -62
1503611609886,5, 5, 0, -1, -1, -2, 1, 6
1503611609892,1, 3, -1, 0, 1, 7, -1, 15
1503611609906,-10, -14, -7, -4, -1, -4, -1, -3
1503611609914,-2, -14, -3, 1, 4, 3, 5, 25
1503611609921,-1, 0, -1, 2, -4, -17, 1, 23
1503611609937,-3, 4, -2, 0, 9, 26, 5, 9
1503611609943,-3, -5, 0, 2, -3, -19, 1, 3
1503611609944,4, 4, 0, -1, 14, 1, -9, -2
1503611609954,4, 4, 0, -3, -6, -16, -13, 0
1503611609966,3, 3, 1, 1, 2, 7, -1, -5
1503611609974,0, 1, 0, 0, -2, -3, 1, 3
1503611609981,9, 0, 0, -3, -5, -1, 4, 21
1503611609997,6, 4, 4, 2, -2, 1, -1, 3
1503611610003,11, 5, 1, 0, -2, 3, 4, 25
1503611610012,-1, 6, 3, 1, 2, 3, 8, 2
1503611610028,-1, 3, -1, -1, -3, 3, 0, -2
1503611610034,5, -24, -9, -5, -2, -2, 5, 21
1503611610041,-2, -3, -4, -1, -2, 2, 5, -7
1503611610057,6, 1, -4, -3, -5, -9, -10, -58
1503611610064,0, 1, -3, -4, 3, -15, -8, -4
1503611610072,-2, 4, 1, -1, -11, -4, 8, 15
1503611610087,-1, 1, 3, 5, 13, 4, -10, -20
1503611610095,-21, -5, -2, 2, 25, 13, 2, -4
1503611610101,0, -2, -2, 0, -6, -2, 2, 15
1503611610117,-2, 3, -1, -4, -26, -6, 2, -29
1503611610124,9, 1, 1, 0, -3, 2, -5, 3
1503611610132,2, 6, 1, 1, 0, 0, -20, 15
1503611610151,-17, -17, -4, -5, -4, -6, -24, -23
1503611610154,-25, -2, 1, 3, 7, 2, 12, 12
1503611610162,-3, 10, 12, 3, -9, 4, 6, 0
1503611610177,6, -8, -6, -2, -2, -7, -4, 10
1503611610184,25, 2, -5, -2, -1, 3, 8, 4
1503611610192,5, 4, -1, 0, -1, -2, -1, 1
1503611610206,-19, -7, 1, -3, -2, 1, 6, -7
1503611610214,2, 1, 3, -4, -7, -4, -1, 4
1503611610226,8, 11, 1, -1, 0, -2, -2, -14
1503611610237,-6, 1, -6, -4, -5, -6, -5, -10
1503611610244,12, -10, -4, 0, 0, 0, 2, 5
1503611610254,24, -19, -13, -6, 1, -1, 0, 3
1503611610266,-1, -29, -12, -2, -3, 0, 2, 7
1503611610274,-19, -13, 2, 3, 4, 1, 2, 1
1503611610281,-10, -4, 1, 2, -2, 1, 2, 1
1503611610297,-1, 19, 7, 1, 0, -1, 0, -3
1503611610304,-5, 9, 4, 0, 1, 2, 2, 2
1503611610312,-4, 7, 0, 0, -2, -1, -3, 0
1503611610326,1, -36, -5, 0, 0, 0, 1, 1
1503611610327,5, 36, 6, 1, -1, 0, 0, 2
1503611610334,-27, -33, -12, -3, 0, -2, -1, -5
1503611610341,-2, -11, -1, -4, -1, -2, -3, 1
1503611610357,-51, -17, 4, 3, 4, 2, 4, 1
1503611610364,18, 43, 10, 2, -2, -3, -4, -2
1503611610379,31, 33, 31, 10, 6, 5, 5, 14
1503611610388,20, -31, -19, -9, -5, -3, -1, 3
1503611610394,26, 20, -5, 4, -1, 0, -1, 3
1503611610401,5, 22, 12, 1, 3, 1, 2, 2
1503611610417,-12, -5, -1, -1, 7, 0, -2, -3
1503611610424,-5, -13, -8, 15, 6, 1, -1, -4
1503611610432,10, -4, -4, -3, -7, -4, 0, 5
1503611610446,-27, -25, -16, -6, -1, 0, 2, 0
1503611610455,18, 14, -4, -2, -4, -2, -2, -2
1503611610461,-14, -5, -2, -5, -3, 2, 1, -3
1503611610477,11, 11, 4, -1, 9, -1, -2, 0
1503611610484,-7, -14, 11, 5, 3, -2, -2, -2
1503611610494,11, -2, -14, -8, -4, 0, -1, 6
1503611610506,6, 20, 10, -19, -1, 1, -1, -2
1503611610514,-11, -10, -1, -3, -7, -3, -5, -7
1503611610522,6, 3, -6, -5, 1, 5, 2, -2
1503611610537,-5, -4, -3, -3, -2, 0, 1, 3
1503611610544,-6, -4, -2, 5, -1, -2, 1, -13
1503611610552,-3, -4, -2, -9, -11, 0, -1, -1
1503611610566,-4, 2, 2, 6, -6, -2, -2, 1
1503611610574,7, 5, 6, 4, 15, -1, -2, 1
1503611610581,-8, -2, -2, 1, -3, -4, -3, -1
1503611610597,15, 13, 1, 3, -6, -3, -3, 1
1503611610604,-2, -1, 5, 5, 0, 0, -2, 2
1503611610612,-2, 5, 7, -7, -5, -4, -1, -4
1503611610626,-11, -20, -13, -2, -1, -3, -2, 3
1503611610634,14, -22, -11, 2, 0, -2, -7, 17
1503611610641,3, -18, -11, -6, -4, -4, -7, 0
1503611610657,5, -2, -5, 0, -3, -1, 1, -12
1503611610664,4, 1, -2, -1, 3, 3, 2, 11
1503611610672,-7, -6, -4, 2, -1, 1, 2, -5
1503611610689,1, 10, 1, -28, -16, -5, -3, -6
1503611610694,-17, 0, -3, -4, -4, 3, 2, 3
1503611610701,-8, -18, -11, 6, 3, -1, -2, -1
1503611610717,-7, -4, -1, 0, -1, -1, 2, -3
1503611610724,4, 8, 1, 2, 1, -2, 1, -2
1503611610738,-8, -12, -2, 5, 0, -2, -5, -7
1503611610746,4, 22, 14, 4, 2, 2, 3, 5
1503611610756,4, 2, -6, -3, -2, 0, 1, 2
1503611610769,-2, -15, -14, 3, 3, 3, 2, -2
1503611610777,3, 29, 22, 6, 4, 3, 7, -9
1503611610784,-10, 6, 0, 2, 4, 0, 1, -1
1503611610799,9, -6, 8, 6, 0, 1, 1, 2
1503611610806,-6, -1, 3, 0, 5, 0, 0, -1
1503611610814,-27, -5, -8, -5, -5, -3, -5, -1
1503611610829,-8, 2, 15, 7, -4, 1, 1, 3
1503611610837,11, 1, -2, -1, 1, -1, -4, -4
1503611610843,-3, 2, -16, -10, -8, -5, -5, -8
1503611610859,-9, 7, 15, 4, 1, 1, 1, 2
1503611610866,1, -11, -11, -2, -2, -1, 1, -1
1503611610874,3, -22, -13, 2, -1, -5, -5, 1
1503611610894,17, 9, 11, 2, 2, 0, -4, 34
1503611610897,-9, -7, -4, 2, -6, -2, -2, -4
1503611610904,-5, -1, -5, -3, -2, -3, -3, -12
1503611610919,16, -13, -15, 4, 5, 0, -1, 4
1503611610927,-2, 7, 10, 3, 0, -1, -4, -5
1503611610934,-32, -6, -10, -9, -8, -5, -2, -11
1503611610949,14, -1, -3, -3, -1, 3, 9, -4
1503611610958,5, -5, -8, -2, 2, 0, 2, 10
1503611610964,2, 12, 1, -4, -7, -5, -3, -17
1503611610979,7, -2, 0, -1, 0, 1, 0, 0
1503611610986,-6, -24, -11, -1, -2, 0, 2, -5
1503611610994,14, 23, 19, -5, -7, -1, 0, 3
1503611611009,-7, -7, -7, 0, -1, 0, -4, 0
1503611611017,2, 7, 10, -2, 1, 0, -2, 2
1503611611025,-11, -2, 0, -3, -6, -3, -1, -5
1503611611039,-1, 5, 6, 10, 4, 2, 3, 0
1503611611046,9, -2, -10, -8, 2, -2, -2, -4
1503611611054,5, 14, -6, -5, -3, -2, 0, -7
1503611611069,6, 20, 4, 0, -1, 1, -1, 7
1503611611077,-14, -11, -7, -17, -9, -3, -1, -5
1503611611084,-6, 14, 16, 7, 1, 2, 0, -2
1503611611106,5, 13, 9, 8, 6, 1, -1, 0
1503611611107,-2, -10, -3, 4, 2, 1, 0, 1
1503611611114,-1, -15, -14, -10, -4, -4, -6, -4
1503611611129,5, 17, 10, 1, 3, 2, -3, 2
1503611611137,18, -6, -1, 2, 2, 0, -7, 16
1503611611144,-12, -19, -11, -8, -4, -2, -3, -6
1503611611159,6, -9, -9, -6, -2, -3, -5, -4
1503611611167,15, 7, 6, 4, 1, -1, -2, 6
1503611611174,-18, -12, -5, 4, 4, 2, 4, -9
1503611611189,-2, 9, 1, -4, -2, 0, 2, -5
1503611611197,-3, 18, 11, 3, 0, 3, 1, -4
1503611611204,-1, -11, -9, -45, -23, -6, -1, 5
1503611611219,3, 5, 7, 3, 3, 1, 2, 4
1503611611227,-3, -12, -15, 10, 4, -1, 1, -2
1503611611234,5, -4, -13, -14, -7, -3, -2, 4
1503611611249,-6, 5, 5, 11, 4, 0, 5, -26
1503611611259,0, 6, -1, 3, -5, -2, 0, 15
1503611611264,-4, -13, -5, 6, 3, 0, -3, 1
1503611611278,-1, 7, 11, 2, -1, 1, -5, -5
1503611611286,-9, -6, -1, 1, 4, -1, -2, 3
1503611611296,-2, -2, -4, 2, 3, 0, 2, -2
1503611611309,5, 28, 23, 14, 6, 2, -1, 1
1503611611317,0, -8, -11, -9, 1, 1, 2, -8
1503611611326,-11, -26, -13, 2, -17, -4, -1, -1
1503611611339,-4, -2, -1, 1, -2, 0, -2, 0
1503611611346,4, 4, 3, -3, 3, 2, 3, -6
1503611611354,0, -4, -1, 11, 6, -1, 0, -4
1503611611369,-2, 2, 2, 4, 19, 4, -1, 1
1503611611377,5, -9, -6, -5, 3, -1, -2, 3
1503611611384,-2, -8, -6, 6, -13, -6, -3, 1
1503611611399,0, 6, 7, -5, -10, -2, 7, 7
1503611611406,3, 35, 17, 8, 9, 6, 0, -5
1503611611414,-21, -4, -3, 4, -6, -1, 9, -49
1503611611430,-9, -10, -10, -3, -18, -10, -5, -3
1503611611437,15, 2, 0, 2, -2, -1, -3, 2
1503611611444,0, -4, 0, 2, 5, -2, 0, 6
1503611611461,0, -6, 1, 0, -3, -3, -5, 5
1503611611467,-2, -19, -4, -9, -5, 1, 2, 7
1503611611474,-5, -5, -2, -13, 0, 1, -4, -12
1503611611489,7, -22, -3, -7, -2, -3, -2, 5
1503611611497,13, 15, 17, 3, -29, -11, -6, 6
1503611611504,-15, -12, -10, -9, 1, -8, -2, -25
1503611611519,-9, -6, -5, 3, -1, -5, -1, 7
1503611611528,7, 14, 6, 4, 4, 1, -2, 0
1503611611534,2, -14, -17, 3, 8, 1, 2, 8
1503611611549,-1, -6, -1, 4, -10, -2, 2, 1
1503611611557,-6, -6, 0, -1, 15, 13, 3, 4
1503611611564,9, 3, -1, -6, 15, 4, 2, 17
1503611611579,8, 17, 9, 10, 28, 8, 4, -9
1503611611586,2, 8, -1, 2, 44, 8, -3, 9
1503611611595,-7, -15, -10, -9, 2, 1, -11, 2
1503611611609,-5, -4, -5, 3, -6, -6, -11, -11
1503611611617,-10, -2, 4, -4, -19, -4, 0, 0
1503611611624,-21, -3, 2, -1, 53, 15, 0, 7
1503611611639,6, 14, -1, -5, -5, -3, 2, -33
1503611611646,-24, 1, 1, -1, -47, -26, -10, -20
1503611611661,3, -10, -8, -9, 5, -3, -6, 59
1503611611669,20, -40, -21, 0, -20, -4, -2, -7
1503611611677,11, 17, 21, 0, -11, -8, -10, -13
1503611611690,2, 1, -5, 4, 22, 5, 1, 6
1503611611691,4, 12, 7, -4, -21, -3, 4, 25
1503611611699,-8, -2, 4, 15, -21, -5, 5, -7
1503611611707,6, 10, 1, -10, -22, -6, -14, -38
1503611611721,-9, 3, -7, 1, -2, -1, -4, -3
1503611611729,-10, 5, -3, -7, -4, 4, 24, -47
1503611611737,7, -2, -5, -11, -29, -11, -11, 30
1503611611751,7, 5, 4, 2, 4, 1, 3, 10
1503611611762,6, 2, 1, 2, 7, 6, 8, -13
1503611611768,4, 3, 2, 6, 8, 10, 4, 47
1503611611781,-9, 17, 16, 8, -26, -12, -5, -15
1503611611789,3, 3, 11, 36, 103, 34, 1, -3
1503611611797,-2, -13, -3, 8, 15, 17, 11, -3
1503611611811,-14, -28, -11, -9, -26, -13, -10, 15
1503611611819,-8, -2, -1, -6, 5, 2, -2, -1
1503611611828,-11, -7, 4, -9, -14, -4, -6, -6
1503611611841,12, -5, -10, -10, 6, -2, 2, 7
1503611611849,3, 13, 2, -6, -19, -9, -9, -9
1503611611857,3, -1, -7, -4, 15, -3, -6, -8
1503611611871,0, 9, 4, -3, -18, -3, 0, -1
1503611611879,-6, -9, -9, -4, 11, 2, -1, -5
1503611611886,5, -6, -3, -4, -11, -3, 7, -6
1503611611901,-8, -3, 0, 0, 4, 2, 3, 1
1503611611909,-8, 49, 24, 4, -5, -3, -1, -7
1503611611917,12, 4, -3, 0, 0, -2, 0, 1
1503611611931,0, 2, -8, -7, -3, -2, -1, -8
1503611611932,6, -25, -11, -6, -3, -3, -1, 18
1503611611939,-14, -6, 13, 4, 4, 3, 0, 0
1503611611946,21, 21, 3, 2, -1, 0, -6, 25
1503611611962,-26, -13, 3, -5, -5, -2, 0, -12
1503611611963,-5, -17, -17, -4, 2, 0, -3, -1
1503611611969,-1, -12, -4, -14, -10, -4, -1, -6
1503611611977,-1, 5, 2, 0, -4, -3, -7, -4
1503611611991,-6, -3, -8, -3, -5, -3, -1, -11
1503611612000,1, 7, 2, -8, -13, -5, 0, 12
1503611612006,5, -8, -6, 5, -1, -2, -1, 1
1503611612024,1, 3, 1, 9, 43, 20, 6, 8
1503611612030,1, 0, -4, -2, 4, 5, 17, -14
1503611612037,-2, 3, 1, -3, -9, -4, -2, 0
1503611612051,-1, 3, 0, 1, 1, 1, 0, -26
1503611612059,-8, -6, -5, -4, -2, -2, -1, -16
1503611612067,-5, -3, -4, -2, -7, -2, 0, 14
1503611612081,4, 0, 4, -1, -2, 0, -4, 8
1503611612089,-2, 11, 5, -2, -2, 0, -3, 8
1503611612097,-30, -20, -12, -4, -2, -2, 1, -10
1503611612111,20, -17, 0, 1, 1, -2, 0, 3
1503611612119,9, 7, 4, 1, -5, -5, 0, 7
1503611612126,0, -12, -13, -1, -4, -6, -7, 4
1503611612141,4, 7, 9, 2, -1, -4, -18, -31
1503611612149,-16, 0, 2, -1, 4, 0, -9, -18
1503611612157,2, 0, -4, -5, -7, -2, 1, 4
1503611612172,-4, -4, -2, -1, 0, 3, -5, 1
1503611612179,-3, 1, -1, 5, 5, 0, 3, 4
1503611612187,4, 14, 12, 6, -2, 3, 3, 13
1503611612201,6, -4, -6, -5, -5, -3, 2, 1
1503611612209,10, 13, 4, 5, 1, 1, 0, 1
1503611612217,11, 1, 2, -2, -3, -1, 3, 1
1503611612238,-2, -6, -8, -5, -1, 0, 1, -3
1503611612240,2, 12, 7, 6, 10, 3, 3, 4
1503611612241,5, -3, -12, -3, -2, -3, 4, 3
1503611612246,-9, -1, 0, 0, -14, -1, 0, 2
1503611612263,-6, 0, 3, 1, 2, 0, 0, 1
1503611612269,9, -3, 3, 1, 3, 1, 2, -1
1503611612277,-4, -5, -5, 1, 0, 2, -1, 1
1503611612291,-6, 3, 3, 1, -2, 0, -3, -3
1503611612300,-8, -8, -14, -7, 12, 3, -1, -1
1503611612307,-3, 9, 12, 8, 7, 2, 6, 4
1503611612321,-11, -2, -6, -5, -12, -7, -9, -13
1503611612332,2, -7, -10, -3, -1, -3, -5, -3
1503611612337,0, 6, 3, -1, -4, 1, 2, 2
1503611612351,-8, -3, 0, -1, 1, -1, 2, -1
1503611612359,3, 7, 7, 5, -2, 1, 2, 4
1503611612370,-4, -15, -19, -7, 7, -1, -2, -2
1503611612391,15, 3, -8, -2, 15, 3, 1, 9
1503611612398,7, 2, -7, 1, -4, -1, 1, 3
1503611612411,6, 3, 0, -7, -8, 1, -1, 3
1503611612419,4, 10, 18, 6, 1, -1, 1, 0
1503611612426,2, 9, 1, 1, -7, -4, -1, -3
1503611612441,-8, -14, -14, -5, 0, -1, 0, -4
1503611612449,7, 0, 7, 2, -5, -4, -1, -3
1503611612457,2, 1, 1, 4, 4, 0, 0, 1
1503611612471,-18, -8, 2, -1, -4, -1, -2, -1
1503611612479,1, -4, -7, 0, -2, 0, -3, -1
1503611612486,-27, 21, 13, 3, -3, 0, -1, -4
1503611612502,-2, -2, 0, -4, -3, -3, -4, 0
1503611612509,-2, -14, -1, 2, -2, -2, -3, 3
1503611612517,-6, -5, -10, -3, 3, -4, -3, -5
1503611612533,-1, -2, -3, -2, -5, -4, -2, 0
1503611612539,-3, -21, -10, -1, -2, 1, 1, -2
1503611612546,6, 0, -8, -6, -1, 2, -3, -4
1503611612561,15, 10, 10, 15, 3, 0, -5, -6
1503611612569,1, -1, -2, -1, 10, 2, 0, -5
1503611612583,2, -25, -11, -2, -2, -1, 2, 3
1503611612591,-16, -15, 1, 1, -4, -3, -5, -9
1503611612601,-7, 1, 5, -6, -2, 0, -4, 9
1503611612613,-8, -7, -3, -4, -1, 1, 2, 0
1503611612621,12, 13, 9, 1, -1, 2, 2, 8
1503611612629,0, -9, -23, 7, -14, 0, 1, 0
1503611612644,0, 16, 17, 6, -6, 0, 3, 1
1503611612651,0, 1, -8, -16, -15, -2, 2, -1
1503611612659,-7, 2, 1, -11, 1, -4, -1, -9
1503611612673,0, -10, -4, -6, -2, -3, -1, 0
1503611612681,1, 6, -3, -6, -3, -3, -3, -5
1503611612688,16, 8, 6, 4, 7, 0, -1, 2
1503611612704,-23, -5, -6, -3, -8, -4, -1, -10
1503611612711,10, 7, 2, -1, 0, -1, 2, 2
1503611612719,30, 0, -7, 0, 2, 0, 3, 6
1503611612734,21, -1, 12, 6, 6, 1, 1, 7
1503611612742,-9, -13, -23, -8, -7, 0, -8, -14
1503611612748,-5, 24, 16, 8, 3, 1, 1, 1
1503611612769,0, -1, -1, 2, 2, -1, 0, 3
1503611612773,-1, -7, -8, -8, 0, 0, -2, -5
1503611612779,4, 2, -5, 0, -2, -1, 0, 0
1503611612793,-1, 8, 13, 2, -4, -4, 3, 2
1503611612801,-37, -10, 0, -4, -4, -2, -4, -12
1503611612809,-1, -8, -6, -4, -3, 0, -1, 2
1503611612824,10, 15, 13, 1, 1, 0, 0, 12
1503611612831,-32, -23, -19, -6, 2, -4, -7, -13
1503611612839,6, 2, 20, 10, 6, 3, -3, 11
1503611612853,10, 12, -7, -4, -4, 0, 0, 1
1503611612861,-7, -10, -11, -7, 0, -3, 2, -2
1503611612869,-12, -16, -3, 3, 0, -2, -3, -9
1503611612884,3, 5, -10, -7, -1, -2, -1, -2
1503611612891,-10, -17, -18, -5, -1, -2, -3, -2
1503611612901,-10, -1, 6, -14, 16, 3, -2, -2
1503611612913,3, 3, 8, 3, 13, -8, -7, -4
1503611612921,3, -7, -6, 5, -12, -2, 2, 6
1503611612929,2, -4, -6, -1, -9, -1, -3, -3
1503611612944,-7, 4, 4, 6, 2, 1, 2, -4
1503611612951,6, 8, 3, -1, -5, -1, 2, 10
1503611612959,-10, -1, -1, 1, -5, -2, -1, -13
1503611612973,3, -17, 2, 3, 3, 1, 0, 14
1503611612981,8, -10, -18, -5, -6, -2, -3, 1
1503611612989,11, 10, 24, 9, 6, 5, 3, -3
1503611613004,-6, -10, -14, -8, -5, -3, 1, 1
1503611613011,3, 7, -7, 1, -2, -1, -1, 1
1503611613019,0, 9, 7, 5, -2, 0, -3, -2
1503611613036,6, 5, -1, -5, -1, 1, -2, 1
1503611613044,10, 1, 6, 12, 5, 0, -1, 2
1503611613049,3, 1, 1, 0, 1, 1, 0, -11
1503611613064,14, 16, 17, 4, 11, 3, -3, 6
1503611613072,-21, 1, -5, -10, -5, -2, 0, -3
1503611613079,-6, -12, -9, -8, -11, -4, 1, -3
1503611613093,10, 8, 8, 1, -1, 3, 1, 3
1503611613103,12, 4, -4, 5, 9, -4, -3, -4
1503611613110,-4, 1, 3, 1, -4, 2, 3, 2
1503611613124,-9, -2, 0, 0, -6, -3, 0, -4
1503611613131,16, -20, -9, 4, 5, -2, -4, 14
1503611613143,-2, -16, -6, -3, -4, -1, -2, -1
1503611613153,-16, -8, -4, -3, -3, 1, 4, -9
1503611613161,-4, 6, -7, -4, -3, 2, -4, 9
1503611613170,19, -9, 2, 4, 0, 2, -6, 10
1503611613184,13, 2, -3, 0, 0, 2, 7, 5
1503611613191,-9, -2, -5, -4, -5, -4, -1, -23
1503611613199,-10, -11, -1, -4, -3, -1, -1, 3
1503611613213,-21, 15, 1, -1, -7, -1, 15, 16
1503611613221,-17, -1, 0, -4, 0, -2, -1, -12
1503611613229,-20, 6, 7, 0, 6, 3, -2, -22
1503611613244,25, -20, -4, 1, 3, 3, -2, -4
1503611613251,-16, -28, -17, -12, -12, -3, 10, 1
1503611613259,-22, 44, 15, -1, -3, -1, -9, -37
1503611613273,0, 6, 6, 6, 18, -2, -2, -5
1503611613281,-19, -13, -5, -3, -2, -3, 2, 3
1503611613289,11, 24, 2, 4, 3, 1, -5, -6
1503611613305,23, 3, -4, -8, -5, -2, 6, 12
1503611613311,9, -33, -7, -4, -6, -2, 7, 12
1503611613319,-19, -19, -8, -8, -11, -8, -6, -9
1503611613333,13, 14, 6, -18, 8, 1, -7, 2
1503611613343,-1, 15, 9, 17, 34, 2, 1, 10
1503611613355,4, 4, 2, 1, -9, -5, -9, -4
1503611613364,3, -6, 0, 2, -28, -6, -3, 4
1503611613371,2, 4, -1, 3, 10, 5, -1, 4
1503611613380,3, -17, -8, -4, -4, 2, 3, 6
1503611613393,-7, 20, 8, 0, -4, -5, -11, -13
1503611613401,7, 12, -4, -6, 4, 0, -6, -7
1503611613410,23, -1, -6, 2, -8, -2, 1, 8
1503611613424,-12, 3, 6, 2, 6, 2, 5, -1
1503611613431,11, -13, -2, 4, -4, -4, -5, -3
1503611613440,-17, 26, 9, -3, 10, -1, 0, -6
1503611613441,6, -4, 0, -2, -1, 3, 3, 7
1503611613453,-7, -12, -12, -2, 2, 3, -2, -6
1503611613461,1, 6, 9, 3, -4, -3, -4, -4
1503611613469,5, 7, -1, 4, 1, 2, 3, 7
1503611613484,-13, -5, -7, -8, -8, -5, -3, -3
1503611613491,-7, 0, 0, 1, 1, -2, -2, -1
1503611613499,2, -5, 1, 1, -2, 0, 0, 0
1503611613515,-9, -2, -3, -1, -7, -4, -3, -4
1503611613521,-1, 11, -2, -1, 2, 0, 0, 1
1503611613535,-16, 1, 3, 2, 1, -1, 0, -3
1503611613544,0, 4, 2, 1, 0, 2, -1, -5
1503611613551,4, -2, 0, -4, -5, -6, -6, 4
1503611613567,0, -8, 1, 1, -2, 1, 0, -1
1503611613573,-2, -2, -3, -2, 2, 0, 0, -3
1503611613582,10, 4, 1, 6, 11, 1, 0, 3
1503611613596,-10, 3, -3, -6, -10, 2, 3, -1
1503611613608,0, -6, -3, -1, -3, -3, 1, -3
1503611613611,10, 7, 10, 5, 3, -1, -2, 1
1503611613626,5, -4, -2, -4, -3, 3, -1, 2
1503611613633,0, -1, -2, 0, 1, 0, 2, 4
1503611613644,-2, -3, -4, 0, -2, 0, -4, 1
1503611613655,0, 1, -2, -1, 2, 2, -2, -4
1503611613663,-6, -6, -2, 1, 1, -3, -1, -3
1503611613678,9, 1, -1, 3, 0, -2, 1, 4
1503611613686,-16, -3, -3, -2, -4, 1, -1, -3
1503611613700,1, 6, 4, 5, 1, -1, -3, -4
1503611613702,8, -2, -3, -2, -6, -2, 0, -2
1503611613716,2, -5, -5, -1, 0, -1, -2, -3
1503611613723,10, 3, 4, -2, 8, -2, -2, 0
1503611613731,-5, -1, -2, 4, -1, -1, -2, -2
1503611613746,-6, -5, -4, -1, 5, -2, 0, -1
1503611613753,-6, -4, 2, -7, 9, -2, -1, -2
1503611613761,-5, -1, -2, 3, 1, 0, -1, 0
1503611613778,3, 0, -2, 2, 6, 1, -2, 2
1503611613779,-5, -7, -4, -6, -4, 6, 5, -3
1503611613784,5, 4, 1, 0, -1, 1, -3, -1
1503611613791,-6, -6, -4, 0, -1, -3, -1, -4
1503611613810,3, 2, 1, -3, -5, 1, 1, 0
1503611613813,-6, -1, -3, 0, -4, -2, 0, -2
1503611613821,-6, 0, 1, 1, 5, 1, 4, 1
1503611613835,5, 6, 6, -4, -7, -1, 1, 4
1503611613846,-2, -1, -1, 5, 3, -5, -3, -4
1503611613851,-6, -7, -8, -3, -15, -18, -13, -3
1503611613867,-4, 1, 13, 0, -14, -3, 0, -2
1503611613878,5, -2, -4, 2, 3, 0, -5, 0
1503611613881,1, -5, -15, -5, 11, 5, -7, 8
1503611613895,-5, 3, 2, -5, -20, -2, 4, -1
1503611613903,12, 6, 1, -5, -6, -1, 0, 5
1503611613915,-2, -11, -14, -3, 7, 0, 1, -1
1503611613926,-4, -2, 7, 3, -1, -1, 3, -3
1503611613933,-5, 10, 6, -2, 3, 3, 0, 0
1503611613944,4, 8, 3, -3, -7, -5, -1, 0
1503611613956,-7, -3, -6, 1, 4, 2, -1, -2
1503611613964,-9, -8, -10, -11, 1, -1, 0, -3
1503611613971,0, -3, 0, 1, 3, 1, 2, -3
1503611613986,-1, -4, 1, 2, -5, 2, 0, -4
1503611613993,2, -3, -2, 0, -6, -3, -1, -3
1503611614001,-4, 2, 1, 3, -1, 1, 1, -2
1503611614016,-1, 1, 6, 5, 3, 1, 1, 3
1503611614023,-4, -8, -12, 0, 1, -1, -2, -4
1503611614031,1, -3, -4, -4, -5, -1, 1, 0
1503611614048,-1, 4, 1, 1, 0, -1, -1, -21
1503611614053,2, 2, 1, -2, 20, 11, 2, -1
1503611614061,-7, -6, -11, 1, -5, -2, -1, 3
1503611614079,1, 1, 0, 1, 1, 0, -3, 3
1503611614084,2, 0, 1, -14, 6, 1, 2, 4
1503611614091,3, 0, -1, -1, 5, -2, -1, 2
1503611614106,1, -5, -7, 2, -3, -2, -2, 1
1503611614113,3, 14, 19, 1, -5, 0, 1, 0
1503611614121,5, 1, -4, -1, -5, -3, -1, 0
1503611614135,-8, 3, 7, 4, 4, -4, -1, -3
1503611614145,1, -4, -4, 0, -4, 0, 1, 2
1503611614152,-6, -7, -9, 3, -2, -2, 0, -2
1503611614167,1, 7, 7, 0, -9, -5, -1, 3
1503611614173,0, -3, -2, -8, -6, 1, -4, -1
1503611614184,6, -4, -6, 0, -1, -1, 0, -2
1503611614195,-8, -2, -2, -5, -8, -7, -2, -3
1503611614203,1, 8, 11, 5, 1, -1, -1, 3
1503611614212,0, -19, -19, -6, 8, 2, -2, -4
1503611614226,-5, 6, 17, 6, -4, 2, -2, 0
1503611614233,4, -1, -6, -1, -10, -4, -1, 1
1503611614241,-15, -12, -7, 5, 16, 4, 1, -4
1503611614255,-1, 0, -2, 2, -9, -1, -1, -1
1503611614263,1, 9, 9, 0, 6, -1, -2, -3
1503611614271,2, 11, 8, 7, 8, 2, 3, 2
1503611614286,3, -4, -12, -8, -5, 0, -1, 2
1503611614293,-1, 1, 1, -1, 0, -1, 3, 0
1503611614301,-4, -5, -6, -10, -2, -5, 1, -1
1503611614315,0, 6, 0, -3, -4, 0, 2, 0
1503611614323,2, 9, 6, -1, -5, 1, -1, 3
1503611614331,4, 18, 23, -1, -3, -1, -4, -3
1503611614346,-1, -4, -2, -5, -4, -2, 2, 4
1503611614353,-1, -13, -13, 2, 1, -1, -1, 0
1503611614361,-4, -5, -6, 2, 2, -2, -4, -3
1503611614375,-7, -5, 0, 6, -2, -3, -2, -15
1503611614383,0, 2, 0, -6, 1, -1, -1, -3
1503611614391,3, 0, -2, -11, 1, -4, 0, 2
1503611614406,-4, -2, -2, 0, 6, 1, -3, -3
1503611614413,1, 11, 10, -2, -2, 2, 2, 4
1503611614422,7, 4, 0, -1, -8, -2, -2, 0
1503611614446,-4, -1, 1, 4, 0, 2, 0, -2
1503611614458,-15, -6, -9, 0, 16, 0, -5, -9
1503611614481,-2, -6, -5, 1, 2, -1, -2, -1
1503611614488,3, 5, 9, 4, 6, 0, 0, 4
1503611614496,-3, -8, -8, -4, -7, 0, 0, -2
1503611614503,-2, -3, -6, -25, -6, -3, -1, 0
1503611614518,0, 0, -5, -4, 12, 7, -1, 0
1503611614526,-5, -5, -3, 6, 5, 0, 1, -5
1503611614533,17, 9, -10, -3, -9, 0, 3, 6
1503611614549,12, 6, 3, 5, -4, -2, 0, 0
1503611614555,-8, -12, -8, -2, -12, -6, -4, -2
1503611614563,2, 2, 0, 2, 2, 4, 0, -1
1503611614580,-5, -6, -2, 0, 2, -1, -2, -5
1503611614586,-4, -9, -3, -2, -6, -6, -7, -8
1503611614593,-2, -3, 1, -1, -11, -4, -2, 3
1503611614608,-3, -1, -3, 3, -1, -3, -2, -2
1503611614616,1, 1, 4, 0, 0, -1, 0, 0
1503611614623,11, 7, 7, 0, -1, 1, 4, -2
1503611614639,-3, -1, 0, -3, -3, -1, -3, -3
1503611614648,-3, -1, 0, 4, 0, -1, -1, 0
1503611614655,10, 2, 16, 6, 1, 0, -2, 3
1503611614669,-18, -24, -14, -2, -1, 1, -1, -4
1503611614677,-8, -6, 3, -3, -3, -1, 1, 1
1503611614684,-11, -18, -8, -3, -5, -3, -5, -3
1503611614699,2, 6, -5, -11, -5, 0, -2, 0
1503611614706,2, 12, 12, -2, -4, -1, 1, 5
1503611614716,3, -6, -4, 3, -1, 3, 0, 1
1503611614729,-5, 0, 4, 1, 1, 0, -2, -1
1503611614737,5, 11, 4, 0, -3, -4, -2, -3
1503611614744,5, 7, -5, 1, 0, 0, 1, 0
1503611614759,-3, 5, -10, 1, 0, 0, 1, -3
1503611614769,-3, -4, -10, 3, -5, -1, -1, 3
1503611614774,5, 5, 12, -5, -3, -1, 1, 5
1503611614790,2, 0, -3, -5, -2, -1, -1, 0
1503611614796,-4, -5, -3, 4, -1, 1, 1, 1
1503611614803,2, -5, -7, -1, 4, -1, -3, 0
1503611614819,1, 2, 4, -2, -1, -1, -4, 0
1503611614826,-1, 1, -1, -4, -3, -4, -3, -2
1503611614843,-4, -14, -14, 1, 1, -2, 1, -7
1503611614849,4, 6, 4, 2, 4, 3, 0, 1
1503611614858,-6, -4, 0, -3, -4, 0, 2, 1
1503611614863,1, 4, -2, 1, 2, -4, -4, -4
1503611614880,3, -1, -5, -2, 0, 0, 0, -1
1503611614887,-9, 4, 2, -4, -3, 0, 3, 0
1503611614902,8, 15, 19, 6, 1, 0, -1, 14
1503611614909,9, 2, 0, -1, 0, -1, 2, 4
1503611614918,1, -10, -13, -2, -2, -1, -1, -5
1503611614924,0, 3, -6, -1, -1, -4, -2, -3
1503611614939,-3, -9, -13, -4, -2, -1, 0, -4
1503611614946,-2, 15, 16, 4, 0, -1, -2, -2
1503611614962,13, 8, -4, -4, 1, 0, 2, 1
1503611614968,19, -7, 0, 1, 0, 0, -1, 3
1503611614984,3, 6, -2, 0, -1, -1, -1, -1
1503611614987,-7, -18, -16, 1, 0, 0, -2, -5
1503611614999,-7, -14, -5, -2, -2, -1, -2, -2
1503611615006,-12, -4, -2, -7, -4, 0, -3, -11
1503611615021,-15, 1, 3, -1, -3, -6, -3, -5
1503611615028,-5, 12, 2, -3, -3, -1, -5, -11
1503611615036,-7, 10, 11, 5, -1, -2, 2, 3
1503611615044,-10, -4, 0, 3, -1, 2, 0, -16
1503611615059,-4, -2, -4, -4, -4, -5, -3, -2
1503611615066,13, 14, 13, 4, 4, 0, 7, 16
1503611615084,-3, -4, -4, 3, 7, 5, 0, 8
1503611615089,-11, -12, -8, -5, -5, -5, -6, 1
1503611615096,-16, -7, -2, -2, -5, 0, -5, -10
1503611615103,-1, -6, 0, 0, 1, 2, 3, 9
1503611615121,16, -4, -2, 1, 1, 2, 3, 3
1503611615126,9, 1, 0, -1, -1, -2, -1, 3
1503611615157,0, -9, -1, -5, -3, -2, 1, 11
1503611615158,13, 20, 6, 2, -1, -2, 0, 10
1503611615163,-17, -6, -3, -1, 0, 2, 4, 0
1503611615179,-11, -13, -5, -5, -5, -4, -4, -8
1503611615187,5, -1, -4, 1, -2, 2, 3, 2
1503611615201,17, 16, 5, 0, -2, 0, 4, 10
1503611615208,1, 3, 0, 2, 1, 0, -1, -2
1503611615217,6, 10, 2, 1, 1, 1, 0, 1
1503611615218,-11, -17, -8, -4, -3, 1, -2, -3
1503611615224,1, -7, -5, 0, 2, 0, -1, 0
1503611615239,6, 5, 0, -1, -2, -4, 4, -3
1503611615246,5, 3, 7, -2, -3, -6, -4, 1
1503611615261,-8, -5, -2, -6, -5, -3, -1, -3
1503611615268,-7, 5, 6, 2, -2, 3, -2, -3
1503611615277,0, -9, -4, 1, 0, 0, 1, 9
1503611615284,2, 11, 10, 1, -1, -2, -6, 3
1503611615299,-6, -10, -2, -2, -2, 0, 0, 1
1503611615306,1, 1, -5, -5, -2, -3, 0, -4
1503611615322,-11, -2, -5, -4, -2, -1, -6, -10
1503611615328,12, 20, 4, 1, 1, 0, 3, -2
1503611615336,-3, -10, -4, 6, 0, 0, -4, -17
1503611615343,-15, -18, -13, -7, -2, -2, -4, -12
1503611615359,4, 2, 2, 1, 2, 4, 4, 1
1503611615366,1, -5, 0, 4, -2, -2, 6, 9
1503611615381,-30, -7, -1, -5, -3, -3, -14, -62
1503611615389,-10, -8, -7, -4, -1, 0, 0, -4
1503611615396,2, -3, 0, -1, 0, -2, -7, -3
1503611615411,4, -1, 4, 2, 2, 0, -5, -5
1503611615422,6, 0, -1, -2, 1, 0, 3, 12
1503611615427,0, -1, -3, -2, -2, 1, -1, 5
1503611615441,-42, -22, -4, -4, -4, -4, -4, -11
1503611615448,3, -31, -17, -3, -1, 1, 2, 2
1503611615457,9, 6, 5, 1, 2, -1, 3, 13
1503611615471,-4, 4, 0, -1, 1, -2, -3, -4
1503611615479,5, 5, -2, 1, -3, -1, 1, 4
1503611615487,-1, 11, 14, 0, 5, 1, 2, -12
1503611615501,15, 3, -2, -3, -2, -1, 0, 17
1503611615508,-2, -3, -1, -1, -3, -1, -1, -1
1503611615528,15, -1, -4, 0, -3, 0, -1, 2
1503611615532,-2, 12, -1, 1, 0, -3, -2, 7
1503611615539,17, 7, -3, 0, 3, -2, 2, 10
1503611615546,-46, -16, -11, -6, -5, -2, -4, -17
1503611615562,-11, -3, 2, 1, 3, 5, 4, 1
1503611615568,8, 10, 5, 4, 7, 1, 1, 3
1503611615577,7, 5, 3, 4, 4, -1, -3, 2
1503611615591,15, -6, -5, 3, 3, 2, -1, 12
1503611615599,-2, 2, 1, 0, 6, 3, 0, -2
1503611615606,3, -6, 0, -1, -2, -3, -7, -1
1503611615621,-14, 5, 7, 2, -8, -1, 1, 3
1503611615629,2, 3, 0, -1, -1, -4, -4, -8
1503611615636,7, 0, -6, -1, -10, -7, -4, -3
1503611615651,2, 0, 1, -2, -3, 4, 3, 2
1503611615659,-12, -7, -5, -9, 1, 0, 0, -17
1503611615666,7, 8, 11, -1, -4, -2, -1, 0
1503611615681,2, -5, -3, -5, -5, -5, 4, 6
1503611615689,1, 0, -2, 0, -2, -1, -2, -2
1503611615697,-20, -11, 1, 9, 16, 2, 6, -17
1503611615711,-5, 3, -2, -2, 2, -1, -1, -2
1503611615724,-3, 3, -1, -9, -4, 3, 6, -7
1503611615726,-6, -5, -1, 2, 2, -2, -10, -15
1503611615741,-2, -1, -2, 3, 2, 2, -3, 5
1503611615748,5, 0, -3, -3, -4, -3, -2, -5
1503611615757,18, -8, 4, 2, 0, 0, -4, 8
1503611615771,3, -10, -9, 0, -4, 1, 4, 2
1503611615779,10, 11, 5, -6, -8, 1, 7, 14
1503611615788,14, 1, -2, -14, -17, -1, 5, 9
1503611615801,2, 3, 3, 8, 11, 1, -5, 8
1503611615808,-33, -10, 3, 8, 6, 6, -12, -51
1503611615816,21, -3, 3, 13, 2, 0, -10, 32
1503611615831,-9, -10, -2, -4, -5, -8, -1, -1
1503611615839,-6, 4, -1, -5, -5, -2, -4, -14
1503611615846,42, 14, 6, 1, 0, 1, 6, 31
1503611615861,-12, 11, -3, -1, -2, -6, -1, -5
1503611615869,-5, -1, -5, -6, 33, 13, 4, 8
1503611615876,-6, -1, 0, -4, -7, 0, -2, -10
1503611615892,-9, -13, -10, -9, -14, -9, -11, 1
1503611615899,-32, -25, -6, -9, -5, -6, -16, -63
1503611615906,11, -62, -48, 1, -4, 1, 7, 9
1503611615927,-37, -15, -16, -18, -16, -1, 7, 7
1503611615929,0, 62, 82, 26, 15, 7, 7, 6
1503611615936,26, 14, 2, 3, 4, 6, 9, 27
1503611615951,12, -1, -19, -1, -5, -2, 7, 32
1503611615961,29, 2, -11, -23, -5, -8, -14, 67
1503611615966,18, 16, 8, 12, 3, -9, -22, -10
1503611615981,-26, -12, -1, 6, -31, -10, 1, -68
1503611615993,-16, 11, 8, 1, -3, -3, 2, -1
1503611615998,16, 11, 7, 3, -2, -6, -2, 3
1503611616011,-23, -13, -11, -12, -7, -3, 8, -19
1503611616019,-4, 0, 6, 7, 7, 3, 5, -16
1503611616026,2, -8, -7, -4, -2, 2, 1, 8
1503611616041,3, -8, -14, 1, 5, 3, -5, 3
1503611616048,9, 2, -1, -3, -6, -4, -5, -6
1503611616060,2, 7, 15, 7, 8, 1, 4, 4
1503611616071,-15, -14, -2, -12, -7, -3, -2, -7
1503611616079,6, -5, -8, -3, 4, 0, 2, 26
1503611616086,-1, 3, -3, -7, -1, -4, 1, 3
1503611616101,6, 20, 18, 6, 3, 2, -4, -5
1503611616108,6, 10, -2, -3, 8, 1, 0, -4
1503611616116,0, -6, -7, 3, 8, 2, 12, 13
1503611616131,-18, -22, -6, 4, 0, 1, 4, 1
1503611616139,-25, -17, -6, -9, -6, -1, -3, -9
1503611616146,9, -3, -9, -5, -6, -2, -1, 2
1503611616162,4, -2, 2, 9, 18, 2, -2, -4
1503611616168,6, 3, 0, -2, 0, -1, 1, 5
1503611616169,-8, -4, -4, -1, -4, 1, 0, -5
1503611616177,17, 6, -3, -1, 16, -2, -14, 27
1503611616191,5, 14, 10, 14, 5, 4, 0, -3
1503611616199,-13, -1, 0, 0, -6, -2, -2, -10
1503611616206,-33, -31, -17, -3, -7, -3, -2, -6
1503611616221,-5, -15, -7, -5, -7, -1, 3, -6
1503611616228,7, 20, 12, 8, 5, 1, -2, 0
1503611616229,7, 21, 11, -3, -4, -1, 1, -2
1503611616244,-6, -9, -4, -6, 1, 0, 2, -5
1503611616251,0, 9, 4, 1, -2, -3, -6, 8
1503611616268,11, 15, 4, -2, 4, 2, -2, 7
1503611616281,-2, 3, -4, 5, -3, -2, 6, -19
1503611616288,-18, -20, -8, -5, -5, -4, -3, -13
1503611616297,0, 9, 3, -8, 18, 6, 0, 4
1503611616311,11, 6, 8, 5, 4, 1, -1, 0
1503611616319,-21, -11, -4, 4, -5, -4, -3, -3
1503611616334,4, 4, -4, -7, 1, 3, 2, 1
1503611616341,-2, -2, 2, 5, 3, 2, 2, 3
1503611616342,8, 10, 4, -4, -11, -5, -6, 1
1503611616348,-4, 0, 5, 2, -3, -4, -4, -15
1503611616364,12, -2, 8, -11, -9, -1, 2, 10
1503611616371,-6, -1, -10, 4, 3, 7, 10, 4
1503611616379,5, 2, -7, 6, 3, 3, 1, 1
1503611616394,-1, -11, -5, -11, -2, -3, 1, 5
1503611616403,7, 2, -2, 3, -3, -2, 2, 3
1503611616408,10, 1, 0, 1, -3, -2, -3, 2
1503611616425,7, -2, -3, -1, -3, -3, 1, -13
1503611616431,-9, -4, -6, -2, -4, 0, 1, -18
1503611616432,10, -2, 1, -1, -1, 0, 0, 19
1503611616439,0, -4, 1, 0, -1, -4, -6, -1
1503611616454,-3, 0, -7, 3, -12, -1, 1, 0
1503611616462,3, 6, 5, 8, -1, 2, 0, 2
1503611616469,2, 0, -3, 1, 0, -5, -3, -7
1503611616483,-3, 18, 14, 6, 0, 2, -2, 8
1503611616494,5, 7, 3, -1, 3, -1, -2, -4
1503611616499,-4, -1, -1, 1, 11, -2, -2, -2
1503611616513,-4, 7, 11, 7, 23, 8, 3, -1
1503611616521,-3, 2, -3, -4, 7, 7, 0, -3
1503611616530,2, 4, 3, -1, -17, -1, 2, 5
1503611616543,-8, -6, -1, -9, -5, 2, 6, -8
1503611616544,7, 1, -3, 2, -1, -2, -2, 4
1503611616551,-4, -14, -11, -11, -1, -3, -6, -10
1503611616564,-1, -2, -6, 1, -11, -5, -1, 0
1503611616574,3, 13, 11, -1, 4, -2, -2, -2
1503611616581,-18, -6, -2, 0, -4, 0, 2, -1
1503611616589,-10, -5, -5, 1, -4, -4, -2, -21
1503611616604,-12, 0, 18, -1, -3, 2, 2, 5
1503611616611,-4, -1, -4, -3, -12, -5, -3, 1
1503611616619,6, -6, -8, -1, -1, -3, -2, 2
1503611616634,-8, -10, 0, 3, 3, 0, 3, -2
1503611616641,5, 2, 4, 2, -7, -4, -8, 6
1503611616642,6, 4, 4, 5, -5, 0, -7, -6
1503611616648,-1, -2, -7, -11, -12, -3, 1, -7
1503611616672,12, 11, -4, 0, 7, -1, -1, 7
1503611616679,0, 3, 9, -3, 3, 2, 1, -5
1503611616696,-1, -9, -7, 2, -8, -3, 2, -6
1503611616701,-3, -3, -11, -10, 6, -2, -1, -1
1503611616708,-4, 0, 3, -5, -3, -1, -3, -3
1503611616723,1, 10, 8, 8, 4, 3, 3, -6
1503611616732,-3, 5, -2, -7, 1, -2, -6, 12
1503611616739,-4, -3, 11, 10, 9, 1, 0, -2
1503611616753,1, -14, -15, 6, -3, 1, 2, -8
1503611616764,4, -15, -21, -8, -12, -6, -2, 13
1503611616768,-22, -6, 0, -1, 24, 7, 0, -5
1503611616783,10, 1, -3, -4, 0, -2, -3, -3
1503611616791,12, 5, 2, 1, -6, -1, 1, 10
1503611616799,-7, -4, -6, -10, -10, -5, -1, -2
1503611616813,-2, 1, 10, 0, -20, -7, -3, -1
1503611616821,-1, -5, -14, -14, -20, -5, 3, -1
1503611616831,12, -17, 2, -11, 9, -2, 0, 2
1503611616843,-23, -3, -2, -3, -11, -3, -4, -9
1503611616851,-1, 12, 3, 1, 1, 4, -1, -12
1503611616859,7, 14, -4, 0, 5, 0, 0, -5
1503611616873,-6, -5, -9, 1, 1, 0, 1, 7
1503611616881,2, 13, 3, 1, -5, 1, -1, 1
1503611616888,1, -1, 1, 1, 5, -3, -4, 4
1503611616904,8, -1, 3, 11, 0, 1, 0, 7
1503611616911,-7, -4, -4, 1, -2, 4, -5, -8
1503611616919,-2, -11, -2, 2, 9, 2, 0, 2
1503611616934,-2, 10, 3, 4, -5, -3, 2, 0
1503611616941,-12, -8, -10, -7, -11, -6, -2, -10
1503611616948,3, 14, 7, 0, -10, -4, 1, 4
1503611616965,-1, -7, -8, 4, 13, 3, 5, 3
1503611616971,5, -1, 2, 3, -2, 1, -4, 0
1503611616979,-4, -18, -13, -7, 0, -1, 1, 4
1503611616993,2, 3, 3, -1, 4, 2, 5, 14
1503611617001,2, -2, -4, 3, 6, 0, -3, -1
1503611617002,24, 29, 5, -7, 1, -4, -8, -3
1503611617008,7, -16, -11, -5, -2, -2, 0, 3
1503611617023,-9, 8, 0, 3, 2, 3, 4, 2
1503611617032,-2, 1, -7, -5, -3, -6, -7, -16
1503611617039,-1, -16, 7, 2, 3, 4, 2, 2
1503611617053,-8, -6, 1, 0, 0, 2, 3, -5
1503611617068,10, 9, 2, 3, 1, -2, -5, 0
1503611617083,-3, -4, 0, -10, 12, 1, 0, 3
1503611617091,-7, 4, 11, 3, -1, 0, 2, 0
1503611617100,2, 4, -1, -2, -1, -2, -2, -5
1503611617113,2, 2, 0, -8, 5, 3, -1, -10
1503611617121,9, -12, -4, 2, -13, -3, -5, -6
1503611617133,-16, -5, -1, 1, -2, -1, -3, 4
1503611617143,-3, -2, -6, 0, -2, 0, -2, 0
1503611617151,-7, -10, -14, -7, 1, -3, -4, -4
1503611617159,22, 12, 18, 5, 3, 2, 0, 3
1503611617174,-5, -4, 2, 2, -5, -1, 3, 13
1503611617181,-30, -44, -22, -7, -5, -5, -7, -19
1503611617189,-3, 3, 9, 3, 11, 0, -1, -4
1503611617203,7, -2, 0, 4, -8, -2, 2, 6
1503611617204,-3, 3, 3, 0, 7, 2, 0, 5
1503611617211,-4, -55, -11, 4, -2, 2, 3, -1
1503611617219,0, 0, -5, -2, -3, 1, 1, -2
1503611617234,-6, 1, -11, -3, -5, -5, -3, -13
1503611617241,-7, 29, 26, 3, -2, 1, 8, -3
1503611617255,12, 25, 2, -3, -3, -1, -4, 6
1503611617269,-9, -12, -6, 2, 3, 2, 2, -2
1503611617271,-14, 5, 0, -8, 7, 0, -2, -2
1503611617286,14, 2, -1, 9, 10, -3, -5, 4
1503611617293,4, 9, -1, -4, 1, 1, -1, 1
1503611617302,1, -2, -2, 10, 5, 1, -1, 5
1503611617315,-4, -1, 0, 2, -7, -4, -4, -2
1503611617323,9, 11, 11, -24, -23, -3, 0, 7
1503611617336,6, 16, 23, 1, -4, 1, 4, 6
1503611617346,-4, 1, 0, 6, -12, -9, -6, -3
1503611617353,4, -7, -8, 5, 18, 1, -2, -19
1503611617361,0, -4, -4, -3, -6, -2, -5, -2
1503611617375,-5, -34, -22, 5, -3, 1, -2, -5
1503611617383,7, 18, 34, 3, 7, 5, 2, 5
1503611617391,7, 1, -3, -5, -4, -2, 1, 8
1503611617406,2, -15, -23, -4, 5, -1, -2, 0
1503611617413,7, 17, 11, -6, -4, 0, 1, 3
1503611617421,-5, -5, -6, -4, -3, 0, -1, -3
1503611617435,0, -4, -12, -5, 0, 0, 2, -5
1503611617443,-13, -10, -15, -9, -3, -1, -2, -4
1503611617451,3, 11, 11, -16, -18, -10, -4, 0
1503611617467,8, 3, 4, 1, 0, 0, 2, -2
1503611617473,8, 0, -7, 11, -14, -4, 2, 8
1503611617481,-8, 1, -1, 2, 1, -1, -1, -5
1503611617495,-11, -7, -5, -2, -9, -6, -6, 0
1503611617503,5, -2, -3, 1, 1, 1, -4, 0
1503611617517,-13, -13, -12, -3, 17, 6, 0, 4
1503611617526,-4, 9, 12, -17, -8, -3, -2, -18
1503611617540,2, 5, 6, 0, 8, 1, 0, -3
1503611617542,2, -1, -2, 11, 3, 1, 1, 1
1503611617555,8, 8, 1, -10, -7, 1, 1, 3
1503611617563,2, -2, -6, -10, -3, -4, -1, 10
1503611617571,-5, -6, -5, 2, -5, 0, -1, 6
1503611617586,-7, 0, -2, 0, -8, -4, -1, 3
1503611617593,3, -1, 0, -3, 7, 4, 0, 13
1503611617601,5, 13, 4, 11, -4, 1, 4, 8
1503611617615,-12, 11, 22, 11, -3, 3, 7, 11
1503611617623,-2, -4, -3, -1, 3, 3, 5, 6
1503611617631,1, -1, -11, -10, 5, 0, 10, -6
1503611617646,2, 17, 22, 11, -34, -6, -1, 2
1503611617653,6, -4, -6, -12, 10, 8, -4, 2
1503611617661,11, -12, -15, -8, 5, -1, -9, 21
1503611617676,-1, -7, 1, 5, -15, -9, -5, -8
1503611617683,-3, 2, -4, -8, -3, 2, 1, -17
1503611617691,10, 19, 16, 5, 2, 1, -6, -3
1503611617706,-6, -18, -8, 10, 12, 0, 0, -9
1503611617713,-2, -7, -12, 16, 20, -4, 1, -1
1503611617721,-7, 10, 9, -3, 8, -5, -5, -2
1503611617735,-9, 3, 4, -5, -12, -8, -3, -19
1503611617744,2, -11, -8, -5, 4, 11, -4, 29
1503611617751,3, 4, 2, -9, 2, 2, -7, -10
1503611617768,-4, 7, 12, -5, -3, -2, 0, -27
1503611617773,-11, -8, -4, -1, -1, -7, -18, -8
1503611617781,-7, 15, 6, 5, 11, -3, -7, -17
1503611617795,4, -4, 0, -2, -6, -4, 4, 17
1503611617804,-1, -13, -11, -1, -5, 5, 6, 0
1503611617811,11, -1, 5, 7, 6, 7, 1, 19
1503611617826,10, 4, 4, 4, 9, 1, -11, 22
1503611617836,-12, -12, -23, -8, -20, -8, 3, -14
1503611617841,-8, 0, 11, -2, 5, -9, 1, -2
1503611617855,-4, 10, 8, -3, -12, -3, -1, -8
1503611617863,-11, -17, -15, -8, -31, -12, -4, -11
1503611617871,12, 15, 11, 0, 53, 19, 8, -1
1503611617886,-2, 5, -6, 2, 15, 11, 5, -17
1503611617893,-6, 2, 5, 1, 1, -3, -4, -17
1503611617904,3, 3, 0, -7, -15, -13, -3, -34
1503611617915,-5, -19, -18, -5, -37, -21, -19, -15
1503611617923,5, -8, 7, 16, 14, 2, 0, 14
1503611617931,-12, -8, -12, 5, 53, 9, -3, -18
1503611617946,-12, -41, -10, 15, 3, -1, -3, 1
1503611617953,22, 6, 18, 11, 79, 44, 15, 53
1503611617961,15, 23, 1, 10, -26, 3, 6, 5
1503611617975,-1, -7, -6, 1, -34, -10, 11, -11
1503611617983,-20, -13, -11, -12, -18, -3, 0, 19
1503611617991,-5, -6, -6, -10, -81, -20, -9, -43
1503611618013,-14, 1, -4, -35, -3, 6, 3, -12
1503611618014,-22, -16, -16, -5, -4, -2, 7, -12
1503611618021,4, 10, -3, 4, 36, -5, -13, 38
1503611618038,12, -12, -2, -6, -22, -1, 1, 14
1503611618043,-1, 0, -14, -22, -49, -14, 3, -41
1503611618051,-15, -22, -6, 4, 25, 3, -9, -8
1503611618067,-29, -12, 17, 7, 7, 3, 0, -35
1503611618075,5, 3, -6, -6, 7, -9, -10, 1
1503611618081,-9, -19, -20, -7, 4, 3, 1, 4
1503611618095,21, 43, 17, 6, 81, 42, 6, 28
1503611618107,33, 27, 26, 24, 47, 4, -2, 17
1503611618111,-11, -10, -13, 1, -35, -18, -3, -13
1503611618126,11, -12, -5, 9, 2, 5, -9, 0
1503611618133,-12, -24, -20, -8, -29, -18, -2, 16
1503611618144,-20, 2, -1, -13, -41, -23, -11, -42
1503611618155,-13, 7, 1, -4, 9, 4, 7, 22
1503611618164,4, 3, 2, -12, -51, -9, 5, 15
1503611618178,10, 21, 16, 4, 33, 9, -8, 14
1503611618187,9, -18, -26, -18, 23, 7, 13, 34
1503611618193,4, 20, 30, 5, -38, -11, 5, 1
1503611618209,-16, 19, 12, 3, -5, 1, 2, 18
1503611618215,-14, -34, -25, -9, -13, -4, -4, -28
1503611618223,28, 18, 3, 8, 15, 3, -1, -8
1503611618240,0, 7, 6, -11, -24, -17, -10, -36
1503611618247,3, -9, -3, 6, 15, -8, -25, 44
1503611618253,-16, -2, 0, 1, -33, -4, 3, -21
1503611618268,14, 9, 2, 6, 22, 12, 8, 7
1503611618276,-2, -18, -3, 2, -5, 0, 1, 11
1503611618284,-11, 5, 5, 3, 9, 6, 3, -37
1503611618298,5, 3, -1, -1, -5, -2, 0, 5
1503611618309,-2, -30, -25, -3, -10, -6, -6, -12
1503611618315,1, -2, 5, 4, 8, 2, 1, 7
1503611618329,-16, -14, -9, -6, -8, -2, 0, -4
1503611618336,20, 13, 8, 6, 4, 3, 7, 13
1503611618344,9, 7, 5, 1, 3, 3, 4, 5
1503611618358,-10, -8, -11, -1, -10, -4, -1, -4
1503611618366,-3, 20, 27, 10, 19, 8, 4, 1
1503611618367,4, 3, 2, 6, 11, 6, 4, -1
1503611618374,8, -14, -12, -3, -2, -1, -2, 1
1503611618388,0, 14, 10, 3, 0, 3, 5, 5
1503611618396,8, -3, -4, 3, 3, -3, -3, 0
1503611618397,-7, -4, -4, -10, 2, -2, 0, -4
1503611618408,-2, 1, 2, -4, -2, 0, -4, -7
1503611618418,-1, 5, 7, 14, 8, 0, -2, 0
1503611618426,-3, -1, -3, -8, -2, 0, 7, 0
1503611618433,1, 7, 4, 2, -1, 2, 3, -1
1503611618448,-4, -4, -6, -5, -7, -2, -4, -3
1503611618449,3, -1, -1, 1, -3, -3, -1, -1
1503611618456,5, 7, 4, -3, -1, 1, 5, -6
1503611618466,-6, -2, 0, -3, 0, 0, 3, -3
1503611618478,5, 13, 5, 1, 0, 1, 1, 0
1503611618487,3, 4, 8, 6, 3, 0, -8, 24
1503611618493,-16, -10, -3, -3, -6, -6, -7, -3
1503611618509,2, -5, -4, -3, -1, -1, 1, -3
1503611618516,15, 9, 2, -1, -3, 0, -3, 2
1503611618524,-7, -16, -18, -8, -5, -6, -6, -14
1503611618538,7, 13, 10, 5, 1, 2, 3, 2
1503611618547,1, -4, -3, -1, -1, 0, -1, -5
1503611618553,-6, -5, -2, -5, -1, -2, -3, -7
1503611618568,6, 0, -1, -3, -4, -1, 1, 10
1503611618577,-8, -5, -11, -7, -5, -3, -1, -4
1503611618584,-4, 14, 10, 7, 6, 5, 1, -18
1503611618597,6, 0, 0, -1, -2, -6, -4, 4
1503611618609,-16, 2, 1, 2, 1, -3, -3, -12
1503611618614,-6, -7, -1, 1, 3, 1, -2, -7
1503611618628,9, 6, 6, -1, -1, 0, 0, 12
1503611618635,-3, -2, -2, 1, -1, 3, 5, 11
1503611618643,-7, -3, -5, -3, -4, -4, -2, -5
1503611618658,-2, -2, 9, 4, 1, 1, -4, -8
1503611618667,0, -2, 0, -1, 1, -2, -2, 2
1503611618675,-1, -6, -4, -3, -1, -2, -3, -6
1503611618676,2, 5, 1, -2, -2, 0, -1, 9
1503611618688,-5, 1, 1, 0, 1, 0, -4, -17
1503611618696,3, -3, -6, -1, -4, -6, -11, -22
1503611618704,1, 1, -1, -1, 0, 1, -1, 3
1503611618718,-12, -2, -3, -3, -2, -1, -2, -12
1503611618726,10, 0, -1, -1, -2, 0, 2, 8
1503611618733,5, 1, 1, 1, 1, 1, 0, 12
1503611618749,4, -5, -3, -4, -2, -1, 2, 9
1503611618756,-1, 1, 0, 1, 0, 1, 2, -1
1503611618764,1, 1, 2, 1, 2, 0, -1, 3
1503611618779,5, -7, -4, 0, 1, 1, 7, 35
1503611618786,1, 4, 1, 0, -1, 2, 2, 6
1503611618800,-1, -3, -4, -2, -1, 0, 1, 2
1503611618808,-1, -3, 4, 3, -1, 2, -3, -12
1503611618823,7, -2, -1, -1, -4, -2, 0, 2
1503611618824,4, 5, -4, -1, -2, -1, 2, 2
1503611618837,3, 10, 10, 0, -1, -3, -7, -22
1503611618846,-9, -1, -3, -3, 0, 0, -2, -10
1503611618853,4, -8, -11, -4, -3, -5, -3, 0
1503611618868,-6, -2, -1, 0, -1, -4, -6, -18
1503611618877,-2, 4, 0, 1, -1, 1, 1, -6
1503611618884,-2, -7, -6, -3, -1, 0, 1, 3
1503611618897,-5, 0, 4, -1, 1, 1, -2, -1
1503611618906,5, -2, -1, 0, 1, -2, 2, 10
1503611618913,-9, 19, 15, -1, 0, -1, -2, 1
1503611618928,-8, -11, -9, -7, -5, -3, -6, -12
1503611618936,7, 3, 11, 7, 5, 5, 6, 18
1503611618945,3, -12, -9, -2, -2, 1, 0, 2
1503611618958,-2, -13, -11, -5, -4, -3, -3, 2
1503611618966,-1, 3, 3, -2, -1, -1, 0, 5
1503611618973,-12, -9, -2, 3, 6, 2, -1, -11
1503611618988,-1, -3, -4, -1, 1, -1, 0, 0
1503611618996,-4, 1, -8, -2, -3, -3, -3, 1
1503611619004,11, 2, 5, 4, -2, 2, 4, 12
1503611619018,-4, -11, -16, -9, -2, 0, 0, -3
1503611619026,11, 45, 35, 14, 2, 0, -1, 6
1503611619033,-5, -1, -11, -3, -5, -4, -3, -8
1503611619048,-4, -11, -7, -5, -3, -2, -2, -4
1503611619056,-3, 4, 6, 1, 0, 0, -1, -7
1503611619064,-10, -12, -8, -4, -6, -3, -1, -4
1503611619078,15, 5, 8, 5, 3, 1, -2, 2
1503611619086,5, 8, 6, -1, 1, 1, 2, 3
1503611619093,-13, -10, -5, 1, 0, -3, -3, -6
1503611619108,-8, -9, -12, -6, -5, -4, -4, -5
1503611619116,12, 1, -2, -3, -1, 1, 3, 4
1503611619131,2, -8, -4, 2, 3, 1, 0, 2
1503611619137,18, 5, -2, 2, 1, 0, 1, 6
1503611619149,-13, -2, -6, -2, 3, 3, 1, -2
1503611619160,-2, 0, 6, 2, 0, 0, 0, -1
1503611619168,-12, -12, -4, 0, 2, -1, 0, -6
1503611619179,-9, -9, -1, 2, 0, -2, -4, -2
1503611619191,8, 4, 5, 3, 0, 1, 1, 4
1503611619198,2, -15, -11, -6, 0, 0, 1, 5
1503611619206,10, 6, 2, 3, 0, -2, -1, 3
1503611619222,-1, -1, -1, -2, -2, -6, -2, -4
1503611619228,9, 13, 6, -2, -2, -1, -2, 2
1503611619236,-2, 19, 9, -3, -2, -1, -4, -4
1503611619251,-11, -43, -27, -13, -8, -9, -10, -18
1503611619257,-16, -7, 1, -5, -1, 0, 0, -5
1503611619266,7, 8, 3, 1, -1, -2, -2, 5
1503611619284,0, -10, -8, -5, -3, -1, -2, -2
1503611619285,-9, -11, -3, -1, -1, -1, 2, -3
1503611619289,-9, -2, -2, -1, 0, 0, -2, -5
1503611619296,2, 1, 3, 0, -1, 1, 1, 2
1503611619314,-1, 2, 2, 3, 1, -2, -4, -9
1503611619318,10, -6, -3, -2, -1, 0, 0, 6
1503611619326,-15, 15, 13, 5, 4, 2, 3, -1
1503611619340,-1, -5, -1, -2, -3, -2, -3, 0
1503611619351,-1, -14, -6, 3, 1, 2, 0, -2
1503611619356,-7, -14, -4, 0, -1, 1, 1, 0
1503611619371,1, -6, -8, -3, -3, -2, -1, 1
1503611619386,0, -5, -7, -5, -3, -2, -2, -3
1503611619387,13, 18, 4, -2, 0, 0, 4, 8
1503611619400,14, 4, -2, -3, -3, 0, 1, 1
1503611619408,1, -4, 3, 2, 1, 0, 1, 2
1503611619429,-2, 7, 4, 3, 1, 0, -3, -4
1503611619431,1, -4, -2, -1, 0, -1, 0, 2
1503611619438,-1, 2, 1, 0, 2, 2, 1, -6
1503611619448,-4, -14, -8, -7, -3, 1, 1, 8
1503611619460,-1, -5, 2, -1, -3, 0, 1, 5
1503611619468,4, 7, 9, 8, 7, -1, -1, 1
1503611619476,-18, -4, 2, -1, 0, -1, -4, -11
1503611619491,12, -1, -6, -6, -6, -3, -1, 5
1503611619497,16, 5, -4, -3, -2, -1, 0, 3
1503611619506,3, -1, -2, -5, -1, -2, -2, -4
1503611619520,-1, 1, -7, -6, -5, 0, -2, -1
1503611619528,-14, 11, 9, 2, 2, 4, 0, -5
1503611619536,-4, 0, 3, 4, 5, 1, 1, 3
1503611619552,-14, -5, -10, -3, -4, -3, -5, -14
1503611619557,-3, 2, 2, 6, 8, -3, -2, -4
1503611619566,10, 2, 1, -3, -3, 1, 1, 5
1503611619582,-8, 0, -4, -1, 0, -2, -1, 0
1503611619588,0, -12, 2, 0, 3, 1, 1, 6
1503611619596,-26, -13, -8, 2, 0, -2, -3, -7
1503611619611,-4, -4, -4, 2, -1, 3, 0, -6
1503611619618,0, 26, -1, -5, -4, -1, 1, 2
1503611619626,5, 17, 10, 0, -2, -1, -4, 0
1503611619648,7, 2, 10, 2, 4, -1, -3, -2
1503611619651,-3, -5, -9, -8, -6, -2, 1, -2
1503611619656,7, -8, -3, -3, -1, -2, -1, 0
1503611619671,-5, -3, -2, -2, 1, 0, -1, -2
1503611619677,10, 3, 4, 3, -4, -1, -2, 1
1503611619686,-15, -11, -8, -3, -4, -5, -6, -15
1503611619700,-3, -7, -5, -1, -2, 2, 0, -2
1503611619708,-9, -5, 11, 12, 5, 0, -2, -5
1503611619718,-7, -17, -2, 2, 1, -1, -1, -2
1503611619731,12, 11, 0, -2, -2, -1, -1, 2
1503611619738,-4, -7, -11, -3, -4, 2, 3, 5
1503611619746,-3, 8, 0, -5, 0, -1, 1, 3
1503611619760,2, 4, -2, 4, -8, -2, -2, -2
1503611619769,4, 2, -1, 1, -4, 0, 0, 2
1503611619776,-13, -10, -13, -9, -4, -4, -6, -15
1503611619791,9, 10, 8, 5, 2, 2, 3, 3
1503611619798,-2, -16, 2, 0, -2, 1, -4, -2
1503611619806,-19, -7, -12, -6, -1, -2, -4, -10
1503611619820,10, 9, 7, 0, 2, -1, 3, 3
1503611619828,7, -1, -8, -3, -2, -1, 2, 6
1503611619836,6, 16, 14, 2, 8, 2, 4, 7
1503611619851,-22, -17, -10, -6, -4, -3, -2, -10
1503611619858,18, -4, -6, -1, -2, -1, 2, 9
1503611619866,1, 1, -1, -2, 3, -1, -3, 2
1503611619883,6, 12, -1, -3, -3, 0, -1, -3
1503611619888,9, 2, 5, 4, -1, -1, 0, 4
1503611619904,4, -9, -9, -4, -3, -1, 0, 3
1503611619911,-26, -22, -14, -12, -8, -4, -5, -16
1503611619919,4, 7, 3, 2, 1, 2, 3, 7
1503611619926,17, 9, 13, 2, 0, -1, 1, 5
1503611619941,-12, -8, 0, -2, -3, -5, -3, -6
1503611619950,0, 2, -4, -1, -11, 0, 2, 5
1503611619964,6, 20, 19, 7, 4, 0, -2, 0
1503611619971,22, 27, 5, 2, 2, 0, 0, 6
1503611619986,3, 0, -3, -4, 0, 3, 5, 8
1503611619987,7, -8, 4, 3, 6, 1, 1, 3
1503611620001,-8, -3, -6, 3, 1, 0, -3, -5
1503611620008,2, 7, 6, 7, 6, 2, 1, 0
1503611620024,-10, -7, -2, -4, -3, -3, -3, -10
1503611620031,1, -1, -5, 0, 0, -2, -1, 0
1503611620039,7, -5, 0, 0, 0, 3, 4, 10
1503611620054,3, -2, -5, -3, -2, -1, -5, -2
1503611620068,-10, -5, 0, -2, -1, -1, -8, -16
1503611620069,4, -6, 3, 2, -1, -2, -1, -1
1503611620085,-7, -2, -2, 1, -2, 0, -1, -3
1503611620091,-2, -9, -3, -7, -6, 2, 2, 1
1503611620099,9, 8, 8, 6, -6, -4, 0, 7
1503611620113,-4, 0, -2, 0, -1, 0, 1, 4
1503611620122,-12, -5, -6, -3, -3, -2, -3, -10
1503611620128,-17, -4, -6, -3, 1, -3, -2, -3
1503611620144,4, 12, 1, -2, 0, 0, 3, 7
1503611620151,-1, -2, -3, -3, -1, -3, -4, -2
1503611620160,-13, -15, -7, -7, -5, -5, -4, -6
1503611620173,3, 9, 10, 9, 4, 2, 2, 1
1503611620181,6, -8, -16, -15, 0, -3, -2, -5
1503611620189,-7, 14, 11, 1, 14, 3, -4, -16
1503611620204,-5, 17, 12, 5, 0, 1, 0, -4
1503611620211,-9, -7, 3, 2, -2, -1, 4, 6
1503611620220,6, 6, 0, -1, -1, 0, -2, 0
1503611620233,10, -2, -5, -5, -7, 0, 2, 0
1503611620241,12, -6, -2, 2, -1, 0, -1, 4
1503611620248,7, -4, -5, 0, 1, 0, -2, 5
1503611620264,0, 8, 6, 1, -1, -1, -1, 0
1503611620271,-11, -12, -7, -11, -1, -2, -3, -6
1503611620279,-3, -7, -6, -2, -7, -3, -1, 1
1503611620294,-4, 3, 1, -1, 20, 2, -2, -7
1503611620301,-7, -4, -1, 1, 4, 2, 1, 1
1503611620308,2, -3, -3, 5, -2, -1, 0, 1
1503611620324,17, 57, 13, 3, 1, 2, 6, 18
1503611620331,2, -2, -1, -2, -5, 0, 1, 1
1503611620339,-8, -31, -12, -4, -2, 2, 7, 3
1503611620353,0, 6, -1, -1, -6, 2, 5, 5
1503611620362,-8, -12, 2, 3, 2, 0, 1, -2
1503611620368,-5, -17, -11, -7, -10, -5, -3, -2
1503611620384,-2, -5, 3, -2, 7, 1, -7, -7
1503611620391,1, 8, -2, -6, -6, -2, -4, -1
1503611620399,-10, -13, -9, 2, -2, -3, -1, -11
1503611620413,2, 4, -1, -20, -13, -5, -3, -4
1503611620421,12, -12, -3, 2, 1, 1, 2, 10
1503611620429,-2, -2, -1, 7, 2, 0, -1, 5
1503611620451,2, 11, 3, 1, 1, -3, -6, 12
1503611620455,10, 10, 11, 8, 5, -2, -8, -4
1503611620459,-9, -10, -6, -6, -4, -3, -5, -11
1503611620473,5, 1, -2, -4, -1, 0, -1, -1
1503611620474,-10, 2, 4, 6, 4, 1, 1, -3
1503611620482,-4, -15, -7, -9, -7, -7, -7, -11
1503611620489,6, -2, 6, 0, 8, 3, 4, 1
1503611620504,-8, 6, -4, -2, -2, -1, 2, -6
1503611620511,7, 14, -17, -6, -8, -4, 7, -15
1503611620521,-11, -7, -8, -5, -5, -1, 11, 0
1503611620534,-3, -12, -3, 1, -3, 0, 7, -2
1503611620541,10, 18, 1, -3, -4, -2, -2, -10
1503611620548,-7, -8, 0, -1, -2, -2, -2, -3
1503611620570,5, -5, -1, 2, 5, 1, -4, 5
1503611620572,-1, -8, -4, 2, -6, -1, -9, 7
1503611620579,7, 0, 10, 7, 1, 3, 0, 4
1503611620593,-5, 2, 5, 0, 0, -1, 0, 5
1503611620601,6, 31, 5, -3, -5, -3, -2, -1
1503611620608,-21, -26, -6, -1, 3, 2, 2, -5
1503611620625,-23, -34, -3, -2, 6, 11, 22, -12
1503611620631,2, 11, 5, -1, -10, -7, -4, -5
1503611620639,-3, -18, -10, -7, -6, -1, 1, -5
1503611620655,27, 4, 1, 3, 5, 3, 3, 10
1503611620661,10, 16, 5, 6, 1, -2, -6, 8
1503611620668,4, 19, 1, -5, -12, -3, -5, -3
1503611620684,-14, -21, -9, 0, 0, -2, -7, -12
1503611620691,-4, -13, -8, -7, -8, -4, 12, 2
1503611620699,-13, -16, 0, -3, -3, -1, 8, -10
1503611620713,-4, 6, -6, -1, 2, 2, -2, 4
1503611620721,0, 15, 1, -12, -17, -8, -10, 5
1503611620728,4, -2, 1, 4, 19, 0, -2, 3
1503611620744,4, 4, 2, 5, 11, 2, -6, 1
1503611620751,-4, -3, 2, 4, -2, 1, -2, 4
1503611620759,-6, -3, 1, -1, 1, -4, -3, -3
1503611620773,-1, 29, 7, 5, 0, -1, 1, -8
1503611620781,-10, -1, -5, -1, -4, -2, -5, -32
1503611620788,3, -3, -3, -6, 5, -3, -2, -1
1503611620789,16, 0, 6, 4, -1, -2, -11, 20
1503611620804,2, -5, -13, -24, 5, -9, -5, 1
1503611620811,4, -12, -2, 4, 8, 2, -17, -2
1503611620826,24, -38, -6, 10, -1, 2, -10, 67
1503611620833,-9, -60, -25, -16, -9, -5, 7, 5
1503611620841,7, -56, -13, 0, -7, -4, 8, 8
1503611620848,-34, -39, -5, 3, 1, 5, 3, -7
1503611620864,-9, 10, -2, -3, -19, -4, -1, -22
1503611620871,3, 21, 5, -9, -14, -8, -2, -13
1503611620886,6, 16, 3, -11, -7, 1, -1, -2
1503611620893,1, 15, 6, -3, 4, 5, 0, 5
1503611620901,1, 21, 9, 8, 0, 1, -4, -4
1503611620908,-5, 4, -2, 1, -3, -4, 2, -11
1503611620926,3, 20, 8, 6, 5, 2, -11, -12
1503611620931,5, -1, 0, 1, 1, -2, -1, -2
1503611620946,0, 12, 4, -1, 4, 0, 4, 9
1503611620953,-12, 4, 2, 1, 4, 0, -4, -9
1503611620961,4, 8, -2, -13, -7, 0, 3, 6
1503611620976,3, 3, -3, -5, -3, -1, 2, 2
1503611620984,-7, -1, -2, 6, 9, 1, -3, -3
1503611620992,-3, 8, 6, 3, 0, 1, 0, 0
1503611621006,4, -1, -5, 6, 3, 0, -3, -3
1503611621013,17, 10, 12, 9, 2, 4, 3, 5
1503611621021,-5, 5, 8, 12, 8, 2, 1, -1
1503611621036,-14, -9, -8, -3, -8, -2, -4, -5
1503611621044,-1, 0, 0, -6, 16, 0, 0, -3
1503611621051,7, 0, -4, -15, 0, -2, -1, -2
1503611621067,-4, -3, -2, 1, 0, -1, -1, -3
1503611621073,1, -1, 2, 2, 3, 0, 0, 0
1503611621081,-11, -1, -1, 1, -1, 0, -1, -2
1503611621097,-14, 1, -1, 1, -4, -3, -2, -4
1503611621104,7, 9, 7, 1, -1, 3, 1, -1
1503611621118,0, 0, 3, 11, -20, -7, -3, -2
1503611621128,0, 0, -1, -12, -14, -2, 0, 1
1503611621134,2, -2, -5, 2, 7, -1, -2, 0
1503611621141,2, 1, 3, 9, -7, -3, 0, 3
1503611621156,-1, -4, -3, 7, 12, 6, 1, 0
1503611621164,14, 4, 0, -2, 7, 1, 1, 2
1503611621171,0, -1, -1, -1, 1, 0, 1, -3
1503611621186,4, -3, -1, -2, -5, -4, -1, -1
1503611621195,2, 2, -7, -7, 4, -3, -5, -3
1503611621202,5, -2, -2, -3, 2, 0, -2, 1
1503611621216,0, -1, -9, -21, -14, -5, -1, 0
1503611621225,3, 12, 16, 7, 6, 0, 1, 1
1503611621232,-3, -1, 5, 7, 3, 0, 1, -5
1503611621246,-6, -10, -11, -4, -3, -5, 1, 1
1503611621253,-8, 12, 7, 6, 7, 2, -1, -2
1503611621261,-2, 0, -2, -1, -1, 2, 1, -4
1503611621276,6, -1, -10, -6, 0, -2, -2, 2
1503611621285,-11, 1, 0, -3, -4, -1, -2, -8
1503611621292,0, 1, 5, 5, 0, 1, 1, -3
1503611621306,6, -8, -10, -8, 5, -4, -7, -3
1503611621313,3, -3, 2, 0, -1, -1, -2, 0
1503611621321,-3, -6, -1, 3, -7, -2, 0, -1
1503611621336,-4, -13, -4, -4, -1, -3, -5, -10
1503611621352,3, -4, 0, 1, -3, 1, 2, 5
1503611621366,10, 1, -2, 3, 2, 1, 3, 0
1503611621373,-4, 6, 10, -6, -10, 0, 4, 1
1503611621381,-2, -3, 0, 6, 3, 0, -2, -2
1503611621396,-3, -2, -2, 0, 0, -1, -2, 1
1503611621404,-8, 1, 3, 9, 0, -2, -3, 1
1503611621411,-2, 0, -2, 0, -2, 1, -2, -3
1503611621430,-10, -6, -3, -2, -5, -1, 1, -6
1503611621433,3, -1, -4, 1, 3, -3, 0, -3
1503611621441,-3, 2, 6, -1, -1, 2, 2, 4
1503611621456,-7, -4, -2, -3, -2, -2, -4, -1
1503611621465,0, 0, -3, -5, -1, 0, -1, -1
1503611621471,-12, -13, -5, 2, 0, 1, 2, -44
1503611621486,-6, 3, 4, 1, 0, -2, -2, -6
1503611621497,-7, -15, -14, -7, -9, -4, -3, -16
1503611621501,-11, 8, -2, -6, -4, -1, 0, -2
1503611621516,-1, 5, 7, -2, -1, 1, -2, 8
1503611621524,2, 0, 3, 2, 8, 2, 3, 9
1503611621531,0, 10, 7, -1, -1, -2, -1, 9
1503611621546,8, -4, -3, 4, 2, -5, -21, 0
1503611621553,0, -3, -2, -7, -4, -3, -3, 3
1503611621566,-5, -10, 2, 2, -10, -2, -1, -3
1503611621576,2, -1, -6, 2, 2, 0, -5, 11
1503611621584,-1, 8, 0, -9, -2, 1, 4, 3
1503611621591,8, 7, 4, 3, 6, 3, 7, 8
1503611621607,-1, -8, -9, -3, -1, 1, 3, 1
1503611621613,-5, -6, -4, -4, -3, -1, -1, 2
1503611621621,-18, -7, 1, 1, -2, 3, 2, -4
1503611621636,3, 0, -7, 1, 3, -3, -4, 3
1503611621644,1, 0, -7, -15, 3, -3, -1, -5
1503611621651,0, 0, 1, -1, 10, 2, 2, -1
1503611621666,1, -6, -7, 1, 0, 1, 2, 5
1503611621673,6, 2, 1, 1, -1, 0, 0, 6
1503611621681,4, 9, 3, 5, 0, 0, 0, -1
1503611621696,9, 6, 10, 6, -2, -2, -3, 3
1503611621705,6, -3, -3, -4, -1, -1, 1, -1
1503611621711,-1, -2, -6, -2, 6, 0, -3, 2
1503611621726,2, 0, -2, 2, -4, -3, 0, -1
1503611621733,0, -3, 0, 6, -6, 1, 2, 0
1503611621741,0, -7, -4, -4, 0, -1, -1, -4
1503611621765,6, 7, 6, 1, -3, -2, 0, 12
1503611621773,-10, -6, 1, -3, -1, 0, 0, -5
1503611621786,10, 1, -1, -3, 2, 0, 1, 2
1503611621793,0, 3, -2, -1, -4, -1, -3, 1
1503611621801,-6, -4, -2, 2, -5, -4, -6, -18
1503611621816,-6, -5, -5, -4, -5, 0, 3, -5
1503611621824,-8, -4, -4, -3, 6, 2, 2, -8
1503611621831,-7, 3, 0, -12, -2, -3, -2, -5
1503611621846,10, 19, 8, 4, 2, 0, -2, 0
1503611621853,4, 1, 4, -2, -2, 1, 1, 2
1503611621865,-2, -2, 3, -2, -11, -2, 0, 4
1503611621876,3, 2, -4, -1, 0, -1, -1, 0
1503611621884,-1, -2, 2, 5, 4, 4, 4, -2
1503611621891,3, 2, -2, -1, -2, 2, 2, -1
1503611621906,5, -6, -8, -1, -2, -3, 0, 5
1503611621913,7, -2, -3, 0, 4, 1, 0, -3
1503611621928,-4, -10, -3, 2, 2, -1, -5, -5
1503611621936,-4, 1, 1, 2, -1, 0, -3, -1
1503611621944,0, 0, 0, 2, 0, -2, -2, 1
1503611621957,-4, -9, -5, 3, 2, 1, 1, 5
1503611621966,-9, -7, 5, 2, -1, -1, 0, 3
1503611621973,-2, -1, -1, -3, 0, -4, -4, -5
1503611621988,0, 1, -4, -14, -4, -2, -4, -8
1503611621997,0, -6, -2, 6, -2, -1, 1, 1
1503611621998,-4, -3, -4, -9, -1, -1, -1, -3
1503611622004,-5, -4, -2, 0, -1, -1, -1, 3
1503611622018,1, -2, -2, 3, -3, -1, -3, -4
1503611622026,0, 8, 4, -3, -2, 0, 4, 1
1503611622033,-3, 1, 3, 5, 0, -1, -1, -4
1503611622048,5, 3, 0, 0, 0, -1, -6, 10
1503611622056,-2, -6, -7, 1, 1, -1, -1, 1
1503611622066,-3, 3, -3, -4, -2, 0, 2, -2
1503611622078,2, -1, -2, 1, -3, 0, -1, 1
1503611622086,-1, -13, -3, 0, -8, -2, -4, -8
1503611622093,5, -1, -1, -2, 3, -1, 0, -2
1503611622109,-5, -2, -6, -1, -2, -1, 1, -2
1503611622117,-6, -2, 2, 3, -2, -4, -5, -2
1503611622124,2, 1, 1, 1, 3, 1, 3, -2
1503611622138,2, 19, 1, 0, 0, 1, 0, -2
1503611622146,3, 4, 4, 0, 0, -2, 2, -9
1503611622153,-2, -4, -4, -3, -1, 1, -1, -1
1503611622169,-1, -2, -5, -5, -2, -1, 4, -8
1503611622176,6, 0, 0, 1, 1, -2, -8, 10
1503611622184,-2, 5, 5, 3, 6, -2, -5, -3
1503611622200,-6, -10, -1, -3, -3, -2, -1, -4
1503611622206,-3, 4, -1, -1, -1, 2, -1, 5
1503611622213,0, 5, 1, -1, -1, 1, 1, 0
1503611622228,-7, -3, -5, -3, -3, -4, -2, 0
1503611622237,2, -9, -3, -3, -4, 1, 4, 6
1503611622244,-3, -5, -1, 5, 6, -2, -5, 1
1503611622257,0, 9, 10, -3, 2, -1, -3, -3
1503611622268,1, -5, -7, -6, -4, -3, -5, -1
1503611622273,-5, -1, 2, 4, 0, 0, 2, -8
1503611622288,1, 0, -1, -4, -4, 1, 4, 0
1503611622296,-4, -8, -5, -3, -4, -1, 0, -7
1503611622305,9, 3, 3, -1, -3, -3, -11, 14
1503611622318,-2, -3, -3, 0, -5, -1, -1, 0
1503611622326,4, -6, 0, -4, 1, 2, 0, 2
1503611622334,0, 1, -1, -3, -1, -1, -3, 0
1503611622348,-10, -2, -2, 1, -3, 2, 4, -4
1503611622356,4, 21, 20, 7, 4, 2, 6, 2
1503611622364,1, 8, 2, 3, 3, -1, 3, 1
1503611622378,-8, 5, 1, 1, -1, 0, -2, -3
1503611622386,-2, 1, 0, -6, -9, -1, -3, -3
1503611622393,-1, -10, -4, -3, -2, 0, 2, 0
1503611622409,-5, -7, -11, -17, 2, -3, -2, -4
1503611622416,0, -4, -3, 2, -1, 0, -1, -2
1503611622424,4, 2, 3, 4, -1, -2, 2, 1
1503611622440,-1, -1, 1, -4, -1, -3, -5, 6
1503611622446,2, 5, -1, 7, 0, -1, -6, -7
1503611622453,0, -8, -6, 6, 7, 3, 3, -2
1503611622470,-6, -3, 2, 5, 1, 3, -1, 1
1503611622476,3, -2, -6, -4, -2, -2, -2, 3
1503611622484,-2, -4, -3, -12, -2, -4, -3, -11
1503611622498,-5, -1, 0, -1, -3, -2, -3, -3
1503611622506,7, -2, 0, 10, -5, -3, -3, 5
1503611622513,6, 7, -2, -2, -4, -3, -2, 6
1503611622528,0, -1, 3, 4, -2, 0, 4, 2
1503611622537,-5, -17, -11, -7, 23, 9, 4, -6
1503611622544,3, -5, -1, 2, 1, 3, 7, -4
1503611622558,4, -3, 0, 4, -8, -2, 1, 4
1503611622566,-2, -2, -6, -5, 5, -4, 0, 3
1503611622573,-1, 1, -1, -1, -2, -6, -8, -14
1503611622588,-4, -10, -1, -3, 6, 11, 8, 1
1503611622596,0, 1, -4, -3, -3, -2, -4, 2
1503611622604,9, 17, 19, 2, -3, 3, 6, 12
1503611622618,1, -3, -1, -1, 8, 6, 0, -6
1503611622635,3, 15, -2, 3, -3, -3, -3, -6
1503611622637,-9, -2, -4, -4, -18, -12, -1, -12
1503611622649,-5, -5, -5, 1, 14, 3, -1, 1
1503611622656,0, -1, -2, 0, -11, -4, -3, 3
1503611622664,-4, -5, -1, 7, 8, 5, -3, -3
1503611622678,0, -7, -5, -5, 12, 8, 1, 1
1503611622686,-11, -3, -5, -7, -2, -2, 5, -12
1503611622693,11, 22, 8, 13, 26, 8, 5, 27
1503611622709,-15, -1, -6, -4, 0, -1, -9, -18
1503611622719,-10, -3, 10, -4, -16, -10, -3, -5
1503611622724,-1, -14, -14, -17, -19, -10, -5, 6
1503611622738,7, -15, -12, -10, -2, -3, -1, 6
1503611622746,7, 20, 10, -1, -14, -5, 3, 1
1503611622759,-4, -9, -9, -5, -2, -4, -7, -16
1503611622771,7, 0, 2, 4, -3, -2, -2, 8
1503611622776,3, -17, -3, 0, 9, 2, -4, 6
1503611622784,-12, -21, -7, 3, 1, -2, -9, -12
1503611622798,-6, 9, 10, 4, -2, 2, 2, -10
1503611622807,17, 10, 6, 4, 2, -2, 1, 17
1503611622813,2, 21, -4, -1, -8, -6, -12, 1
1503611622828,-13, -1, 2, -4, -6, -3, -3, -44
1503611622838,1, -2, -4, -3, -8, -4, 4, -2
1503611622851,1, -1, -1, -1, 0, 0, -5, 4
1503611622858,-12, 1, 5, 0, -6, -1, 3, -6
1503611622866,-6, -8, -2, -1, -6, 0, -3, 5
1503611622880,-5, -6, -3, -1, -2, 1, 4, 4
1503611622888,3, 23, 10, 0, 1, 1, 2, 4
1503611622896,-4, 1, 5, 2, -3, -1, 4, 0
1503611622911,-1, -2, -7, -2, 2, -2, -3, 1
1503611622918,-2, -46, -22, -6, -4, -1, -6, -5
1503611622926,-17, -20, 6, 9, 7, 5, -1, -5
1503611622941,-9, -1, 3, 3, 2, -2, 2, -4
1503611622948,7, -1, -14, -24, -8, -3, 2, 5
1503611622956,4, 6, 1, -1, 1, -2, -8, -2
1503611622972,6, 7, 1, 2, 2, -1, 5, 11
1503611622978,9, 6, 2, 1, -7, 0, 4, 6
1503611622987,-9, -11, -4, 2, -1, -2, -3, -1
1503611623000,-3, 4, 4, 3, -2, -1, -10, 13
1503611623008,5, -4, -1, -1, -1, 0, 6, 14
1503611623016,0, 12, 5, 11, -3, 1, 1, -15
1503611623031,3, 3, 0, 6, 0, -2, -4, -3
1503611623039,3, 6, 0, -2, -2, 0, 2, 1
1503611623047,-10, 3, 1, 12, 5, 2, 0, -6
1503611623060,-1, 5, -3, -12, -4, -3, -1, -10
1503611623068,14, 5, -2, 2, 2, 1, 0, 4
1503611623076,2, 1, 1, -4, 0, 2, 10, 1
1503611623091,10, -7, 2, 4, 0, -3, -9, 25
1503611623098,3, -11, -9, 0, 1, 0, 4, 2
1503611623107,-18, -26, -3, 1, -1, 0, -2, 3
1503611623120,3, -9, -1, -2, 2, 0, 0, 14
1503611623128,7, 5, -3, -5, -4, -3, -2, -3
1503611623136,-7, -24, -11, -2, -3, -1, 2, -7
1503611623151,-15, -10, -3, -3, -3, -3, -3, -30
1503611623158,-17, -12, -5, -1, -2, -2, 3, -22
1503611623166,-9, 0, -2, -2, 0, -1, -5, -1
1503611623180,9, 9, 2, -4, -3, -3, -3, -4
1503611623188,14, 11, 2, 1, -1, -1, 6, 1
1503611623196,-6, -5, -1, -1, 0, -1, -6, 0
1503611623211,3, 8, 5, 1, -1, 0, 0, 4
1503611623218,-9, 16, 8, 1, 0, -1, 0, 4
1503611623227,0, -2, -5, -5, -6, -4, -1, -11
1503611623241,3, 5, -1, -2, 2, -1, 0, 0
1503611623249,-3, 0, -8, -17, -3, -1, 1, 2
1503611623255,-3, -8, -4, 8, -9, -1, -1, 1
1503611623256,2, 2, -2, -9, 0, -2, -2, 2
1503611623271,-3, -1, -1, 0, 1, 1, 1, -8
1503611623278,0, -12, -4, 2, 0, -2, -4, -2
1503611623286,11, 30, 12, 2, -1, -2, -1, -2
1503611623300,4, 6, 1, -6, -2, -1, 0, 2
1503611623308,1, 29, 20, 8, 1, -2, -3, -4
1503611623316,-7, 1, -4, 3, -1, 1, 0, 0
1503611623331,4, -8, -8, -2, 0, 0, 1, 1
1503611623339,1, 8, 3, -4, 1, 1, -1, 1
1503611623340,-6, 1, -2, -3, -6, -2, -2, -5
1503611623346,-4, -13, -9, -5, -2, -2, -1, -4
1503611623360,-2, 4, 11, 3, -1, -1, -2, 4
1503611623368,12, 13, 2, 0, -1, 0, 0, 4
1503611623376,-3, 14, -1, 2, 1, 1, 0, 6
1503611623390,1, -10, -4, -1, 2, 1, 2, 3
1503611623398,1, -5, -2, 3, 0, 2, 0, -8
1503611623408,-1, -10, -5, 6, 1, -1, 0, 13
1503611623420,-4, -10, -6, -1, -1, -4, -3, -8
1503611623428,-2, -6, -4, -3, -2, 1, -1, -1
1503611623435,-8, -6, 7, 1, 1, -3, -6, -2
1503611623451,6, -7, 0, 2, 2, 0, -2, 7
1503611623458,21, 6, -6, -6, -8, -3, -2, -2
1503611623467,-13, -17, -3, -6, -6, 0, -5, -13
1503611623480,2, -7, -6, -1, -11, -3, 0, -3
1503611623488,17, 0, -10, -11, -2, -3, 0, 0
1503611623496,-1, 6, 10, 7, 5, -2, -4, -16
1503611623511,-17, -13, -7, -2, -4, 0, 4, -4
1503611623518,11, 0, -5, 0, 5, 4, 6, 17
1503611623526,-18, -3, 4, 2, 3, -2, -3, -7
1503611623542,-3, -2, 0, 2, 8, 2, 4, 2
1503611623548,0, -2, -3, 4, 0, 0, 0, 4
1503611623555,0, 26, 13, 2, 0, 3, 3, 4
1503611623571,4, -1, -3, 6, 12, 1, -7, 19
1503611623578,-20, -5, -5, 1, -3, 1, -3, -4
1503611623586,-3, -3, 4, 3, -3, -1, 3, -3
1503611623600,1, 17, 5, 2, 3, 1, -3, -6
1503611623609,-2, 5, 12, 3, 2, 1, 1, 2
1503611623616,1, -14, -5, -5, -2, -2, -1, -2
1503611623631,2, 4, -3, -7, -9, -3, -7, 13
1503611623638,-12, -8, -4, -1, 0, -1, 7, -11
1503611623653,6, 8, 9, 11, 2, 1, -1, 11
1503611623660,-3, 11, -6, -8, -5, -5, -3, -2
1503611623668,-9, -1, -1, -3, -2, 0, 0, -17
1503611623676,-3, -3, -1, -2, -2, 2, 1, 1
1503611623677,-5, -20, -7, 1, 3, 1, -2, 4
1503611623690,-4, 0, -4, 1, 1, 1, 1, -10
1503611623698,22, -4, -12, -7, -5, -1, 0, 5
1503611623706,-6, -17, -14, -5, -4, -2, 0, -12
1503611623720,15, 7, 14, 7, 3, 0, -3, 3
1503611623728,-11, -4, -2, 0, -4, -2, -1, -13
1503611623736,1, -11, -5, -7, -4, -2, 3, 2
1503611623751,4, -2, -3, -8, -1, -1, -2, -9
1503611623759,-4, -11, -4, -2, -6, 0, -1, 0
1503611623775,10, -22, -16, -6, -1, 0, 4, 0
1503611623782,1, 11, 13, 2, -3, -3, -2, 3
1503611623788,8, 14, 7, 0, -1, -2, -4, 3
1503611623802,-9, -5, 6, -3, 6, 4, 5, 2
1503611623811,5, 2, 2, -2, -5, 0, 4, 4
1503611623819,-12, -6, -14, -23, -8, -4, -1, -14
1503611623833,-3, 12, 12, -1, 0, -1, 3, -1
1503611623840,-3, -7, -4, 2, 0, -1, -3, -1
1503611623848,-2, 14, 10, 4, 0, 1, 0, -5
1503611623862,1, 4, 3, 16, 2, 0, -2, 3
1503611623870,-8, -17, -11, 2, -1, -1, 0, -13
1503611623878,-3, -8, 0, 10, 6, 4, 7, -3
1503611623893,-3, 0, -1, -1, 8, 0, -1, -2
1503611623907,15, -1, -10, -10, 0, -2, -5, 1
1503611623911,-21, -13, -3, -3, -1, -4, -1, -12
1503611623923,-13, -6, 2, 0, -3, -2, -3, -4
1503611623930,4, 6, -5, -6, -4, 0, -4, -7
1503611623938,-7, -6, -5, 3, 5, -3, -9, -11
1503611623953,-10, -19, -8, 0, -2, -1, -6, -10
1503611623960,-33, -14, -4, -8, -4, -2, -2, 14
1503611623968,9, -2, -4, 4, -4, -7, -19, 6
1503611623982,-7, 15, 9, 17, 0, -1, -3, -11
1503611623991,-5, 4, 2, 2, 6, 2, -2, 19
1503611623998,21, -1, 3, 3, -6, 3, -1, 23
1503611624015,15, 24, 17, 4, -1, 2, 11, -4
1503611624020,1, 10, -5, -10, 14, 0, -2, -8
1503611624028,13, 8, 20, -11, -12, -5, 8, 12
1503611624042,9, -12, -10, -3, -3, -3, -1, -4
1503611624051,-15, -16, -14, -3, 5, -2, -6, -11
1503611624058,23, 15, -2, -5, -4, -2, 0, 16
1503611624073,-2, -12, -17, -7, -1, 2, 5, 3
1503611624081,13, 26, 31, 7, 1, 2, 3, 2
1503611624088,-11, 4, -1, 2, 0, -5, -5, -6
1503611624102,-11, -18, -13, 2, 4, -4, -1, -29
1503611624120,-10, -25, -8, 3, -2, 0, -4, -16
1503611624133,-8, -2, 5, 5, -13, -4, 0, 4
1503611624140,6, 19, 2, -15, -11, -3, -3, 2
1503611624148,-4, -7, -3, 10, 2, 0, -10, -11
1503611624162,-5, -8, -5, -12, -4, 2, 4, 6
1503611624170,-7, -13, -6, 1, -8, 1, 4, 7
1503611624182,-12, -3, 2, 6, 1, -3, 0, 2
1503611624193,12, 6, -10, -17, -27, -10, -2, -12
1503611624200,0, 2, 12, -6, -16, -6, 2, 31
1503611624208,-14, -8, -3, -10, -12, 3, 8, 1
1503611624222,-10, 3, -5, -4, 11, 6, -3, -2
1503611624223,-23, -15, -9, 5, 10, 1, 1, -13
1503611624231,5, -13, 0, -2, -3, -9, -5, 8
1503611624238,14, 4, 10, 3, -7, 5, 12, -7
1503611624253,-6, -1, -4, -6, -12, -3, -6, -18
1503611624260,-1, -4, -14, -10, -9, -10, -11, -13
1503611624268,7, 1, 10, 13, 32, 10, 6, 14
1503611624282,-4, -8, -11, -5, -9, -2, 1, -9
1503611624291,3, 4, 0, -6, -7, -3, 0, 8
1503611624298,20, 23, 20, 8, 7, 6, 10, -2
1503611624314,-7, -9, 1, 5, 3, 2, 2, 5
1503611624323,4, -8, -9, -3, -2, -2, -7, 11
1503611624328,8, 13, -4, -6, -22, -7, -3, 3
1503611624342,-6, -3, -2, 7, -26, -10, -13, -2
1503611624351,-2, 4, 2, 7, 3, 2, -6, -18
1503611624358,0, 10, 4, -6, 20, 2, -1, -1
1503611624373,-7, -3, 2, 5, -31, -17, -7, -9
1503611624382,-8, -2, -5, 1, 6, 4, 21, -16
1503611624389,-8, -3, -2, -4, 11, 5, 2, -8
1503611624402,4, -10, -8, -3, -24, -8, -1, 5
1503611624411,-5, 5, -2, -9, 0, -4, -4, -13
1503611624418,9, 0, 3, 20, 35, 7, -7, 35
1503611624433,2, -6, -6, -1, -18, -8, -3, 17
1503611624440,1, 11, 3, -2, -3, -2, -1, -10
1503611624448,-5, -11, -1, -2, -10, -3, 3, -2
1503611624449,5, -15, -4, -2, 17, 9, 5, 12
1503611624477,12, -2, -1, 2, -8, 0, 0, -2
1503611624485,8, 2, -4, 0, 39, 12, 11, -1
1503611624492,-11, -3, -1, 0, -21, -11, -9, -8
1503611624494,5, 5, 1, 1, 4, 4, 6, 10
1503611624500,-25, -23, -15, 0, 49, 14, 4, -5
1503611624508,28, 29, 8, 10, -1, 0, 1, 41
1503611624523,-30, -26, 0, -3, -9, 1, -3, -15
1503611624530,9, -35, -16, -7, 6, 5, 3, 2
1503611624538,6, 16, 9, 1, 0, 0, -1, 3
1503611624553,-51, -29, -7, -10, -9, -9, -15, -80
1503611624560,-2, -1, -5, -7, -8, -8, -21, -15
1503611624568,24, 31, 9, 6, -1, 7, 15, 20
1503611624583,6, -10, -2, 6, -3, -2, -1, 1
1503611624584,-2, -5, -8, -13, 5, 2, 1, 5
1503611624591,-3, 10, 5, 0, -4, -6, -9, -4
1503611624598,25, 21, 7, 3, 0, 4, 5, 19
1503611624613,-9, 0, 0, 4, 3, -4, -13, -15
1503611624621,7, 10, 0, 0, -3, -2, 0, 1
1503611624628,-3, -3, 1, 2, 3, -1, 4, 12
1503611624642,-5, -3, -2, -3, -5, -2, -5, -10
1503611624651,12, 3, 1, -2, -4, -6, -9, 5
1503611624659,-5, -11, -1, 0, -2, 0, -3, 7
1503611624673,-2, -10, -5, -2, 1, 5, 9, 4
1503611624680,2, -14, -7, 4, 3, -2, -1, -6
1503611624688,-2, -3, -1, -3, -4, -2, 0, -20
1503611624702,-1, -6, -13, -6, -3, -1, 1, -1
1503611624711,-8, 2, 1, 2, 2, 1, 1, -3
1503611624726,2, 9, 3, -1, -1, -2, -4, -26
1503611624733,-11, 6, 1, -2, 0, 4, 12, -16
1503611624740,1, 2, 3, 0, 0, -2, -3, 17
1503611624756,14, 4, 0, 4, -1, 1, 7, 41
1503611624762,1, 4, -2, -2, -1, -3, -13, -80
1503611624763,-14, -4, -2, -2, 1, -1, 3, 12
1503611624771,-13, -1, -3, -3, -2, -2, -6, -5
1503611624785,12, 11, 3, 2, -2, -4, -12, 11
1503611624793,-13, -10, -1, 1, -2, -1, -5, 8
1503611624800,7, 6, 5, -1, 2, 3, 7, -1
1503611624818,-4, -2, -1, 0, 2, 2, 8, 22
1503611624819,7, 13, 7, 0, -3, -7, -18, -41
1503611624823,-23, -5, 4, -1, -2, -2, -4, -23
1503611624838,-3, -1, -1, -1, 0, 1, -2, 14
1503611624845,4, 22, 11, 3, 1, 1, -2, -6
1503611624853,21, -8, -6, -1, -1, 0, 3, 12
1503611624861,2, -6, -7, -3, -2, -1, 3, 3
1503611624876,-5, 11, 0, -2, -1, 1, -2, -6
1503611624886,11, 11, 5, 0, -2, 1, 5, 9
1503611624891,9, -1, -4, -3, -1, -1, 0, 12
1503611624905,-2, 11, -2, -1, -1, 0, 1, 6
1503611624913,-3, -9, -3, -1, 0, -2, -5, 1
1503611624921,17, 15, 1, 0, -1, -3, 0, -2
1503611624922,-19, -17, -8, -1, -2, -4, -4, -22
1503611624936,-7, -7, -1, -1, -2, -1, -1, -5
1503611624943,3, -5, -1, 3, -2, 0, 3, 2
1503611624953,2, 8, 4, -3, -1, -2, -3, 2
1503611624965,9, -9, -7, -5, -2, 2, 0, 10
1503611624973,-4, -3, 3, 2, 0, -2, 2, 3
1503611624981,-11, 54, 21, 1, -1, 0, 3, -14
1503611624996,3, 7, 4, 2, 1, -1, -5, -11
1503611625002,-4, -15, -10, -2, 0, 1, 2, -2
1503611625011,-2, 0, 2, 1, 1, -1, 2, 3
1503611625025,2, -12, -5, -3, 0, 2, 2, 10
1503611625033,4, -5, 0, 2, 0, -2, -7, 26
1503611625040,-11, -20, -9, -4, 0, -2, -2, 10
1503611625056,-10, -3, -3, -4, -1, 1, 13, -28
1503611625062,4, 4, 0, 0, 1, -5, -3, -3
1503611625071,12, 10, 2, 0, -1, -2, -6, -8
1503611625087,5, -7, -2, 0, 2, -1, -3, 0
1503611625093,16, 0, -1, 3, 1, 3, 9, 39
1503611625109,0, -3, -1, 1, 2, 0, -6, -9
1503611625116,-9, -15, -7, -1, 0, 1, -2, -12
1503611625126,4, -13, -5, -3, -4, -1, 1, 7
1503611625131,-15, -9, -4, -1, -1, 2, 6, -11
1503611625147,-5, 0, -1, 3, 0, 0, 0, 1
1503611625154,-2, 1, -1, -3, -2, -2, -5, 6
1503611625168,-6, 2, 2, -1, 0, -2, -4, -9
1503611625175,7, 14, 4, 0, 1, -2, -1, -4
1503611625193,-12, -1, 1, -2, -2, -2, -4, -12
1503611625206,21, 9, 1, -1, -1, -2, 3, 23
1503611625213,9, -1, -1, -2, -2, 0, -1, 0
1503611625233,6, -22, -14, -5, -3, -3, -4, -4
1503611625236,-1, -2, -6, -2, -3, 0, 0, 0
1503611625245,-3, 5, -2, -1, 0, 1, -2, -5
1503611625251,-4, -5, -5, -1, -4, -1, -1, 8
1503611625266,-10, -6, 0, -1, 0, 1, 1, 6
1503611625273,8, 3, 0, -2, -2, -2, 1, 8
1503611625291,-15, -4, -2, -2, -3, 0, 0, -8
1503611625297,-4, -11, -1, 0, 0, 0, 0, 0
1503611625303,4, -2, 0, -3, -2, -2, -3, -1
1503611625311,0, 6, 0, -1, 2, -1, -3, -11
1503611625326,-20, -9, 3, 0, -1, -4, -9, -34
1503611625333,-2, 4, 0, -1, 0, 1, 2, 5
1503611625348,10, 34, 16, 2, 1, 0, 7, 26
1503611625356,-2, 3, 5, -1, -1, -1, -4, -10
1503611625363,11, -1, -5, -3, -3, -1, -1, 9
1503611625370,0, 5, -2, 0, -1, 1, 1, 6
1503611625389,0, 2, 0, -3, -3, -2, -4, -2
1503611625393,-1, -7, -7, -2, -1, -2, -3, -7
1503611625408,-3, -5, -1, -1, -2, 0, 0, 0
1503611625416,-5, -2, 0, 0, 0, -1, -1, -9
1503611625424,-2, 1, -2, 1, 0, -1, -4, -12
1503611625431,0, -3, -3, -2, -3, -1, -1, -4
1503611625446,0, -8, -6, -3, 0, -1, -5, -1
1503611625455,-5, 2, -3, -1, -1, -4, -2, -3
1503611625456,5, -5, -2, 1, 1, 0, 1, 3
1503611625468,1, -5, -9, -1, -1, -1, 1, -1
1503611625476,-19, -5, -2, 1, 2, 0, -2, -10
1503611625483,6, 3, 5, -1, -3, -2, -5, -9
1503611625484,0, 5, 4, 0, 1, 1, 1, -2
1503611625491,1, -4, -4, -2, 0, -1, -1, -4
1503611625506,3, 4, 2, 2, 0, -1, 2, 8
1503611625513,4, 2, 1, 1, -1, -2, -1, 1
1503611625528,-11, -4, -3, -1, 0, -1, 0, 5
1503611625535,1, 1, 7, 5, 2, 1, -4, -4
1503611625543,9, 2, 1, 1, 2, 3, -1, 7
1503611625550,-5, 2, -1, -6, -6, -2, -2, -2
1503611625566,-11, -1, 2, -5, -7, -4, 0, -12
1503611625573,2, 1, -2, -3, -1, -1, -1, 5
1503611625590,-8, 0, -3, 1, 2, 1, 1, -20
1503611625596,-1, 0, -1, 1, 0, -2, 1, 4
1503611625604,10, 11, 4, 1, 0, -1, -2, 17
1503611625610,-2, 1, -2, 0, 1, 0, 0, 4
1503611625626,2, -4, -4, -3, -3, -1, -1, 2
1503611625633,2, 5, 1, -2, 0, -1, -1, 6
1503611625649,12, -1, -1, -1, 0, -1, 3, -3
1503611625657,3, -10, -4, 0, 0, 0, 4, 1
1503611625664,-1, -8, -3, -1, -2, -2, -4, -4
1503611625678,-17, -6, -2, -1, -2, 1, -1, -10
1503611625686,0, 2, 1, 0, -1, 0, -2, 3
1503611625693,-1, 7, 1, 0, -2, -2, -1, -5
1503611625708,-14, -10, -8, -2, -2, -2, -2, -5
1503611625716,4, 8, 6, 4, 2, 2, -1, -3
1503611625725,2, -2, -1, -1, 0, -3, -2, -10
1503611625738,-5, -1, -3, -1, 0, -2, -3, -10
1503611625746,2, 0, -3, -3, -2, -1, -1, 11
1503611625753,5, 2, 2, 0, 0, 0, 0, 9
1503611625769,-5, -4, -2, -1, 0, 1, -1, 1
1503611625775,10, -1, 0, 3, -1, 0, 0, 6
1503611625783,-17, -9, -1, 1, 0, -2, -1, -9
1503611625784,4, 7, 4, 1, 1, -2, 0, 4
1503611625798,-4, -2, -6, -5, -4, -4, -2, -3
1503611625806,-2, -3, -3, -2, 0, 0, -1, -7
1503611625813,-8, -2, -5, -5, -4, -5, -4, -8
1503611625828,-3, 5, 5, 2, 3, 1, -2, -4
1503611625835,-3, -2, 2, 0, 0, 2, 2, 4
1503611625843,3, 0, 6, 3, -1, -2, -1, -1
1503611625858,6, 4, -1, -1, 0, -1, -1, 0
1503611625867,8, -8, -10, -5, -5, -1, 2, 5
1503611625873,-3, 0, -4, -4, -2, -2, -4, -3
1503611625888,-1, 0, -2, 0, 1, 1, -1, 0
1503611625896,-8, -2, 1, -1, -2, -1, 1, 2
1503611625903,-6, 1, 0, -2, -2, -1, 0, -4
1503611625919,3, -3, 1, 2, 4, 0, 0, 2
1503611625928,3, 0, 1, 2, 0, 0, 0, 2
1503611625934,0, 2, 4, 3, 0, 0, 2, 0
1503611625949,0, -1, 1, 0, -2, -1, -1, -3
1503611625956,-8, -2, 0, 1, 1, 0, 1, -1
1503611625964,-4, -11, -5, -1, -1, 0, -1, -1
1503611625978,5, -2, 0, -3, -2, -1, 0, -1
1503611625986,-7, -3, -5, -5, -4, 0, 11, -1
1503611625993,-4, -5, 1, 0, -1, 0, 0, 2
1503611626009,-17, -3, 1, -1, -2, -1, -1, -9
1503611626015,1, 1, -2, -1, -1, 0, 0, -1
1503611626024,9, 0, -1, -1, 0, -2, -4, 10
1503611626038,-1, -1, -4, -2, -3, -3, -2, 1
1503611626046,-8, 1, 1, -1, 0, -1, -2, -6
1503611626053,4, 7, 1, 0, -1, -2, -2, -4
1503611626069,11, 4, 2, 1, 1, 1, -1, 1
1503611626076,-1, -7, -3, -2, -3, -1, 0, -1
1503611626084,0, 4, 0, -1, -1, -3, -4, -5
1503611626098,-3, -9, -7, -3, -1, -2, -1, -8
1503611626106,1, 5, 3, -2, -1, 0, -1, -3
1503611626113,-3, 0, 3, -1, 1, 0, -3, 0
1503611626129,-5, -9, -4, 0, 2, 0, -1, -1
1503611626136,4, 0, -7, -1, -1, 1, -1, 2
1503611626144,6, 10, 10, 4, 1, 0, 0, 3
1503611626160,-3, -3, -3, -1, -1, -1, -1, -3
1503611626167,0, -2, -5, -2, -3, -2, -2, -4
1503611626173,2, 4, 4, 2, 1, 0, 0, 1
1503611626189,-5, -1, -6, -1, 0, -2, -3, 0
1503611626196,2, 2, 2, -1, 0, -1, -1, 0
1503611626204,4, 2, 0, -1, 0, -2, -2, -1
1503611626218,-5, 8, 4, 0, -1, -1, -2, -1
1503611626229,-4, -4, -3, -2, -1, 0, -1, -2
1503611626233,-12, -4, -2, -3, -1, 0, 0, -1
1503611626250,1, -5, -4, -1, -1, -1, 1, 0
1503611626256,1, -4, -4, -2, -2, 1, -3, -2
1503611626264,-1, -2, -4, -2, -1, 1, 1, -2
1503611626278,1, -4, 1, 4, 1, -2, -1, 1
1503611626286,2, -2, -2, 0, -1, 0, -1, -2
1503611626295,2, -1, -4, -4, -2, -1, 1, 2
1503611626309,0, 2, 6, 4, 3, 2, 0, 0
1503611626316,-1, 1, 3, 1, -1, -1, 1, 0
1503611626328,-3, -1, -2, -3, -3, -3, -2, -3
1503611626338,-6, -5, 0, -3, -1, -1, -2, -4
1503611626346,-1, -4, -2, -3, -1, -2, -1, -1
1503611626353,0, 1, -3, -2, -2, -1, -1, -3
1503611626368,0, 6, 4, 2, -2, 0, -3, -2
1503611626376,3, 3, -1, -2, 0, 0, 0, 1
1503611626383,-10, -9, -6, -3, 0, 0, 0, -3
1503611626398,-2, -6, -5, 0, -3, -2, -1, -2
1503611626406,6, 5, 6, 0, -1, -1, 0, 0
1503611626413,0, -4, -2, -2, 0, -2, 0, -1
1503611626429,1, -1, -3, -2, -2, -2, 0, 1
1503611626436,4, 2, 3, 2, 0, 0, 1, 1
1503611626444,-6, -1, -3, -3, -1, -1, -3, -4
1503611626458,0, -5, -3, -1, 0, -1, -1, 1
1503611626473,-1, 2, 2, 1, 1, -1, -1, 0
1503611626474,-1, -5, -1, -2, -2, 0, 0, 0
1503611626489,5, -5, -6, -6, -2, -1, -1, 2
1503611626496,-4, 0, 2, -1, 0, 0, 0, -1
1503611626504,-2, -7, -6, -3, -3, -1, -3, -4
1503611626518,0, 5, 1, -2, -1, 0, -2, -1
1503611626526,1, 3, 1, -4, -4, 1, 1, 4
1503611626533,2, -11, -14, -10, -9, -2, -2, -3
1503611626549,2, 3, 2, -8, -4, -1, 2, 2
1503611626555,-1, 2, 0, -9, -5, -3, -3, 0
1503611626564,-1, -6, -5, 6, -5, -1, -3, -2
1503611626578,3, -2, 2, 3, 1, 2, 2, 3
1503611626586,3, 2, 1, 4, 5, -1, 0, 4
1503611626600,-9, 0, -7, 0, 0, -3, -4, -5
1503611626608,-15, 5, 7, 1, 5, 1, 2, -5
1503611626615,1, -8, -9, -4, -2, -1, -1, 1
1503611626631,4, -5, -5, 2, 1, -1, -2, 1
1503611626639,-1, 9, 11, 8, 4, 1, -2, -5
1503611626646,3, 3, 4, 12, 9, 0, 0, 0
1503611626661,-2, -7, -7, -6, 0, -2, 0, -3
1503611626669,-5, -1, -2, -1, -4, -2, -3, -4
1503611626676,5, 6, 9, 10, 8, 1, 2, 2
1503611626691,1, -8, -5, -2, 0, -1, -1, 1
1503611626699,-2, 5, 7, 5, 0, -2, -2, -6
1503611626707,5, 10, 0, -4, -6, -1, 1, 0
1503611626721,-7, -7, 1, 0, -1, 1, 0, 1
1503611626730,-1, -9, -5, -5, -1, -1, -4, -4
1503611626736,7, -1, -6, -4, -3, -1, 0, 0
1503611626750,-11, 5, -3, -2, 0, -2, 0, 0
1503611626751,4, -11, -1, 3, -2, -2, -1, 0
1503611626758,-3, -1, -3, -1, 0, 1, 0, 3
1503611626769,-2, 0, -8, -7, -6, -6, -3, 0
1503611626781,0, -2, 5, 3, 2, -1, -1, 1
1503611626789,-7, -4, -6, -6, -2, -2, -1, -3
1503611626796,2, 4, -3, -3, -2, -1, 1, 0
1503611626811,2, 2, 6, 0, -2, 0, -1, 1
1503611626818,-3, -2, -5, -6, -2, -2, 0, -2
1503611626827,3, 13, 11, 5, 1, 3, 1, 1
1503611626841,1, -1, -6, -4, -3, 0, -1, 1
1503611626849,3, 6, 2, -1, 1, 0, 0, 1
1503611626856,-2, 9, 12, 4, 1, 0, -5, -6
1503611626871,-2, -6, -6, -1, -2, -1, -1, -5
1503611626878,5, -3, -3, -2, -2, 0, -1, 5
1503611626886,-1, 11, 8, 4, 2, 0, 0, -1
1503611626901,0, -11, -12, -5, -2, 0, 1, 3
1503611626908,4, 0, -5, -5, -3, -2, 2, 3
1503611626916,2, 20, 11, 2, 1, 0, 0, -4
1503611626933,-2, -9, 2, 1, 2, 1, 0, -1
1503611626939,-6, -8, -6, -2, -3, -3, -2, -4
1503611626946,19, 3, -2, 0, 1, 1, -1, 9
1503611626961,-20, -13, -8, -7, -8, -1, -2, -13
1503611626969,-2, -10, -2, -1, -4, -2, -5, -10
1503611626975,9, -3, 0, 2, 0, -1, 1, 7
1503611626990,-9, -2, -10, -6, -3, -1, 2, 4
1503611627000,-4, 5, 7, -2, -1, -2, -3, -2
1503611627007,-3, -5, -1, 0, 0, 0, -1, -4
1503611627021,1, -12, -3, 1, 0, -1, 0, 3
1503611627029,-12, 7, 12, 5, -2, -1, -2, -6
1503611627036,8, 5, -1, 0, 7, 0, 1, 3
1503611627050,-23, -6, -6, -5, -4, -1, -3, -14
1503611627058,5, 9, 3, 4, 4, -2, 0, 1
1503611627069,-2, -2, -9, -4, 3, 1, 0, 3
1503611627081,2, 14, 12, 2, 1, 3, 2, 1
1503611627088,16, 2, 1, -2, -2, -3, 4, 8
1503611627095,-13, -18, -10, -3, -3, 0, 0, 0
1503611627110,4, 8, 9, 0, 5, -1, -3, -1
1503611627118,3, 20, 2, -3, -3, -1, -2, 0
1503611627127,5, -4, -5, 4, -4, -1, 0, 1
1503611627142,8, 3, 3, 1, 1, 0, -1, 1
1503611627148,8, 0, -4, -1, -4, -2, -1, -4
1503611627155,0, -10, -11, -7, -6, -1, -2, -6
1503611627171,-3, 9, 19, 9, 9, 1, -1, 0
1503611627178,6, -10, -3, -1, 2, 0, 2, 9
1503611627186,-4, 2, -5, -5, -6, -1, -3, -7
1503611627206,5, 2, 2, 0, -1, 0, -1, 4
1503611627209,-8, -10, -11, -9, -10, -1, 2, 6
1503611627217,-10, -3, 0, -10, -6, -1, 2, -4
1503611627230,3, 11, 0, -6, -3, -1, 0, 0
1503611627238,0, -6, -6, 1, 3, -1, -1, 1
1503611627247,5, 3, 7, 2, -2, -1, 0, 2
1503611627261,-13, 0, -1, -1, -3, -4, -4, -10
1503611627270,-4, -18, -9, -2, -1, -1, -2, -7
1503611627276,7, 6, 2, -1, 0, 1, -2, 1
1503611627290,-3, -5, -3, -3, 0, -2, 0, 0
1503611627298,-12, -20, -15, 0, -6, -2, -2, -5
1503611627306,-2, 2, 4, -1, 4, 2, -1, -2
1503611627320,2, -14, -10, -3, -3, -1, -2, -1
1503611627328,-4, -3, 1, 1, -3, 0, 1, -2
1503611627336,-2, -6, -2, -10, -5, -2, -1, -1
1503611627350,8, -2, 0, 0, -2, 0, 2, 6
1503611627358,1, 2, 2, 7, 5, 0, -2, -1
1503611627369,-5, 9, -1, 5, 0, -2, -1, -5
1503611627381,-7, 3, 3, 2, 1, -3, -1, -1
1503611627389,8, 1, -4, 3, 2, 1, -2, 1
1503611627395,13, 37, 20, 10, 5, 2, 2, 1
1503611627411,-17, 0, -5, -6, -3, -3, -7, -20
1503611627418,-2, -6, -4, 0, -3, -2, -1, -1
1503611627426,6, 5, 1, 3, 0, 0, -1, 3
1503611627441,6, -4, -5, -5, -4, 0, 1, 5
1503611627448,3, -12, -2, -1, -1, 1, 1, 4
1503611627455,11, -11, -10, -1, 2, -1, 0, 0
1503611627471,-10, -10, -9, -6, -4, -1, 0, -1
1503611627478,3, 10, 3, -7, -4, -1, 0, 4
1503611627486,-8, -3, -1, 1, 5, -1, -1, -6
1503611627500,-10, -4, -4, 1, 0, -1, -3, -6
1503611627508,0, -4, 1, 2, 0, -2, 0, 7
1503611627522,-5, -3, -3, 0, -2, -1, -1, -2
1503611627530,1, 5, 0, 0, 2, 1, -2, 0
1503611627538,-11, -9, -5, -2, 0, -1, -3, -7
1503611627553,3, 9, 12, 5, 3, 1, 1, 3
1503611627560,-3, 3, 4, 4, -4, -1, 0, -3
1503611627570,-5, -10, -5, -2, -1, -2, -1, -7
1503611627582,-12, -14, -12, -12, -14, -7, -5, -9
1503611627590,-3, 4, 2, -2, -1, 0, 2, 3
1503611627598,-6, 2, 2, 1, 4, 1, 0, -1
1503611627613,-12, 4, 0, -2, -2, 0, 0, -3
1503611627620,13, -2, -2, 1, 1, 1, 4, 7
1503611627628,-14, -13, -7, 0, 1, -1, -3, -1
1503611627642,7, 13, 8, 3, 5, 1, 0, 4
1503611627650,-1, -20, -13, -5, -4, -4, -4, -5
1503611627658,0, 9, 16, 3, 1, 0, 1, 0
1503611627674,11, 2, -9, 1, -1, -4, -5, 0
1503611627681,-6, 10, 6, 7, -2, -1, 0, -1
1503611627688,7, 2, 2, 5, 5, 0, 0, -2
1503611627703,-5, 2, 8, 4, -2, -2, -3, -6
1503611627711,-1, -6, -3, -1, -2, -1, 1, 0
1503611627718,1, -6, -8, -9, 0, 0, 1, -3
1503611627733,6, 4, 5, -2, 1, 2, 2, 3
1503611627747,0, -10, -11, -7, -2, -2, -4, -2
1503611627749,-9, 1, 6, 4, 0, 3, 1, -6
1503611627765,-8, -11, -8, -2, -2, 1, -1, 2
1503611627771,3, -3, -1, -3, 3, -3, -3, 4
1503611627778,-5, -7, -1, 0, 2, -1, -2, -11
1503611627793,-2, -15, -13, -7, -7, -4, -1, -4
1503611627800,4, 21, 4, 3, 1, 1, 4, 2
1503611627809,6, 19, 6, 0, 0, 0, -1, 8
1503611627822,1, -9, -3, -4, 1, -2, -4, 1
1503611627830,13, 5, -2, -3, -4, -2, -1, -2
1503611627839,-7, -2, 2, 4, 4, -1, -5, 2
1503611627853,-7, 2, 5, -2, -3, -4, -2, -17
1503611627860,-10, -3, -4, -4, -4, -2, 7, -27
1503611627868,-9, -3, 3, 0, 0, 1, 2, 6
1503611627882,5, -2, -4, 0, -2, 0, 0, 8
1503611627890,2, -1, -3, -8, -7, 0, -6, 1
1503611627898,10, -10, -6, -7, 1, -1, 1, 8
1503611627913,1, -11, -3, -1, -2, 1, 2, 3
1503611627920,-1, 0, 4, -1, -5, 1, 0, 1
1503611627928,2, -9, -11, -6, -1, -4, 2, 1
1503611627942,-4, -3, -3, 1, -2, 1, 4, 6
1503611627950,4, 19, 9, 9, 6, 1, -2, 10
1503611627958,-4, -7, -4, -2, 7, 0, -3, 1
1503611627973,-2, -2, -5, -10, -9, -2, -2, -8
1503611627981,2, 2, 3, 9, 2, -1, 1, 5
1503611627988,-1, 2, 2, 3, 16, 2, -2, 3
1503611628003,-1, 0, 0, -1, -3, -1, -3, 5
1503611628011,-2, -5, -1, 3, -4, 0, 0, 5
1503611628018,2, 11, 8, 1, 3, -2, -3, -8
1503611628033,-1, 11, 0, -3, -2, 0, 1, -6
1503611628041,-2, -5, -3, -1, -3, -1, -2, 1
1503611628048,2, 1, 3, 1, 0, -1, -1, -4
1503611628063,-1, -8, -4, -1, -2, -2, -3, -5
1503611628071,-3, -5, -4, -1, -2, -3, -3, -5
1503611628078,-1, 0, -1, -5, -3, -1, -2, -2
1503611628093,-1, -4, 2, 1, -2, 0, 1, 3
1503611628100,3, 5, -1, -2, -3, -2, -1, 0
1503611628108,-4, -4, 0, 0, -3, -2, -1, -5
1503611628123,2, -4, -2, 2, 0, -1, -3, -1
1503611628131,-2, -1, 0, -1, 0, -1, 0, -2
1503611628138,-2, -2, -4, -10, -7, -4, -1, 0
1503611628153,0, -1, -1, -2, -1, -3, 1, -1
1503611628160,0, -1, 0, 1, 1, 0, -1, -2
1503611628168,-1, -3, -3, 3, 10, 1, -2, -2
1503611628183,-4, -2, 0, 1, 4, -1, -1, -4
1503611628191,0, -1, 0, 0, -3, 1, 0, 1
1503611628198,-1, 0, 1, 1, 3, -1, -3, 0
1503611628213,0, 1, 1, -1, 2, -1, -1, 1
1503611628220,2, -2, -1, 0, -3, -1, 0, 0
1503611628228,2, 0, -1, -3, -5, -2, -1, 0
1503611628243,0, -1, -4, 1, -2, 0, -1, -1
1503611628251,-1, -2, -1, -2, -1, -1, -2, -3
1503611628258,-1, -3, 0, -4, 2, -2, -1, 0
1503611628275,-2, -3, -3, 3, -2, 1, -1, 0
1503611628280,1, 9, 4, 3, -1, 0, -4, -5
1503611628288,-2, -5, -5, -3, 0, -1, 0, 1
1503611628303,-1, 1, 2, 3, 1, 1, 3, -1
1503611628312,-1, 0, -1, 0, -2, 0, 0, 0
1503611628318,-7, -4, -2, 6, 1, -1, -1, -3
1503611628333,2, -2, -5, -1, 0, -1, -1, 1
1503611628343,0, -2, -3, -6, -2, -1, 1, 0
1503611628348,-3, -4, -1, -1, -1, -5, -4, -6
1503611628363,-11, -2, 2, -3, -6, -2, 2, -2
1503611628371,-3, -3, -4, -9, -6, -1, 7, -11
1503611628379,2, -11, -7, -2, -3, -2, -2, -1
1503611628393,1, 0, 4, 4, 1, 0, 1, -1
1503611628400,5, 4, 0, 2, 4, -1, -4, -2
1503611628409,6, 3, 1, 0, -2, -3, -3, 2
1503611628423,3, -2, 2, -1, -2, -2, -6, 7
1503611628431,-3, -7, -6, -1, 1, -2, -4, -1
1503611628445,3, -3, -4, -3, 0, -2, -1, -1
1503611628453,-7, -2, -1, -7, -7, 1, 0, 2
1503611628460,3, 0, -7, -7, -4, -1, -1, -3
1503611628480,0, 4, 6, 4, -1, 1, -1, 11
1503611628483,-5, -3, -2, -4, -1, -1, -1, -7
1503611628491,1, 2, -1, 0, 2, 0, 0, -1
1503611628505,-6, -6, 5, 1, 0, 0, -1, -1
1503611628520,2, -4, -4, -2, 0, 3, 3, 4
1503611628535,2, 11, 2, -1, -2, -1, 1, -1
1503611628547,-8, 14, 9, 0, 0, 0, 2, -3
1503611628551,-4, -15, -2, 1, 3, 1, -1, -5
1503611628565,12, 7, 1, 0, -1, -2, -4, 5
1503611628573,-5, 6, 4, -1, 1, -1, 0, -2
1503611628581,2, 1, 3, 3, 0, -2, 1, -1
1503611628595,-1, -4, -2, -1, 0, -2, -3, -1
1503611628603,0, 3, -6, 0, -4, 0, -1, -4
1503611628612,5, 1, 0, 0, -1, 2, 2, 2
1503611628625,-4, -7, -3, -4, -2, 0, -1, -1
1503611628633,-4, -1, -1, 1, -1, 0, 2, -5
1503611628634,6, -3, -1, 1, -1, 0, -1, 5
1503611628640,-1, -9, -6, 1, -1, -1, -1, -2
1503611628655,5, 6, 0, -3, -2, -2, 1, 1
1503611628663,3, 0, 3, -1, 2, -2, 0, 4
1503611628671,-1, 1, -1, -1, -1, 0, -1, 2
1503611628685,-9, -5, -4, -3, -4, -3, -6, -11
1503611628693,-5, -1, -1, -1, -2, -2, 0, -4
1503611628700,2, 13, 4, 2, 2, 0, 1, 2
1503611628716,-4, -5, -2, 0, 0, 0, 1, -2
1503611628722,2, 1, -2, 1, 2, 0, -1, 0
1503611628730,-1, 2, -1, 0, 0, -3, -2, -2
1503611628750,-3, -3, -1, -3, -5, -3, 0, -3
1503611628754,-3, -4, -3, -5, 0, 1, 1, -1
1503611628760,1, -9, -4, 1, -1, 0, 1, 3
1503611628775,6, -1, 1, -2, -1, 1, -2, 2
1503611628776,-1, 12, -3, -3, -4, -2, -3, 1
1503611628783,-8, 1, 2, -5, -5, -2, 7, -9
1503611628790,0, 2, -3, -1, 1, -2, -2, 1
1503611628804,2, 1, 0, 2, -8, -4, -1, -1
1503611628805,-1, 0, -1, 7, 17, 0, -1, -3
1503611628813,-2, -4, 1, 2, 4, -1, -2, -3
1503611628821,-4, -5, -6, -6, 8, -1, -5, -3
1503611628835,0, -2, 2, -1, -3, -2, -5, -3
1503611628843,1, -1, -2, 0, 0, 1, 0, 1
1503611628851,1, -4, 1, -2, -11, -4, 0, -5
1503611628865,0, 0, -4, -23, -12, -3, -2, 7
1503611628873,-2, -3, 3, 5, -9, 1, 2, 1
1503611628883,0, -1, 0, 4, -3, 1, -3, 1
1503611628895,-1, -2, -3, 4, 4, 0, -1, 0
1503611628903,-3, 2, 1, 3, -7, -4, -1, -1
1503611628913,-5, -3, -3, 0, -2, -3, -4, -2
1503611628925,4, 5, 6, 3, -5, 1, 0, 2
1503611628933,0, -8, -4, -7, 2, -2, -1, 2
1503611628940,-5, -9, 0, 0, -2, -3, -3, -7
1503611628955,2, 2, 1, 3, 7, 1, 2, 1
1503611628963,0, 7, 4, 2, -5, -3, 1, -9
1503611628971,-1, -3, 2, 3, -6, 0, 0, -5
1503611628985,2, -5, -5, 0, -2, -1, -8, 1
1503611628993,0, 4, 1, -3, -10, -2, -2, -3
1503611629000,-3, 2, -1, 1, -3, 2, 8, -13
1503611629016,-1, -5, -1, -2, 3, 0, 1, 2
1503611629030,1, -2, -5, 2, -3, 0, 2, 5
1503611629032,-5, 13, 9, -2, -1, 1, -1, -5
1503611629047,2, -3, -5, -3, 1, 0, -3, 9
1503611629053,8, 5, 2, -3, 2, 1, 1, 14
1503611629060,21, 7, 5, 3, 1, 1, 5, 13
1503611629076,-11, -12, -10, -5, 2, -1, 2, -5
1503611629084,-3, -11, -3, -2, 0, -2, -2, 1
1503611629091,-8, -4, -5, -1, -1, -1, -2, -7
1503611629105,12, 13, 4, 0, 3, 1, -3, 0
1503611629115,3, 0, 1, 0, -2, -2, -2, 1
1503611629121,3, -1, 1, 1, 15, 1, 2, 2
1503611629135,-13, -9, -4, -3, -2, -2, -1, -10
1503611629143,-1, 1, -1, 1, -4, 1, -3, -2
1503611629156,-19, -4, -1, 1, 3, -3, -6, -8
1503611629165,-17, -3, -4, -3, -6, 0, 4, -2
1503611629173,15, 3, -1, 1, 1, 0, 1, 2
1503611629183,-2, -2, 1, 1, 1, -2, -3, -2
1503611629195,2, 3, 0, -2, 1, 1, 1, -13
1503611629203,1, 1, -4, -2, -4, 0, 0, 2
1503611629211,-18, -2, 1, -1, -1, -1, -4, -8
1503611629225,-8, -7, -3, -2, -1, -2, -1, -3
1503611629233,4, 3, -4, -2, -3, -1, -2, 5
1503611629240,-7, -7, 0, -1, -14, -5, -7, -8
1503611629256,12, 3, 1, -6, 7, 2, 0, 5
1503611629263,-2, -2, -3, -3, 1, -2, 0, 0
1503611629271,5, 2, 1, 3, -5, -1, 0, 5
1503611629285,-1, -2, 1, 2, 3, 3, 0, 0
1503611629293,-1, -3, -1, 0, 0, -3, -2, 2
1503611629300,-1, 1, 0, -1, -1, -1, 0, -2
1503611629316,6, -8, -7, -2, -1, 0, 0, 2
1503611629323,3, 8, -2, -4, -2, -3, -1, -2
1503611629331,-9, -27, -7, 0, -1, 0, 2, 0
1503611629344,2, -4, -6, -1, 3, 2, -1, 0
1503611629353,12, -4, -7, 0, -3, -1, 1, 2
1503611629367,1, 7, -1, -2, -3, -2, -3, -1
1503611629375,3, 15, 11, 3, -2, -1, -4, -4
1503611629383,2, 1, 1, 1, 1, 2, 1, 4
1503611629398,1, 5, -4, -1, 0, 1, 0, 2
1503611629404,-1, 25, 15, 4, 1, -1, 0, -2
1503611629414,4, 12, -3, -2, 0, -3, 0, 1
1503611629427,-3, -14, -6, -1, -1, -1, -1, -1
1503611629435,-2, -4, -2, 0, -1, -2, 0, -1
1503611629443,-6, -8, -5, -3, 0, 0, -4, 0
1503611629458,1, -2, -1, 0, 1, 1, -1, -2
1503611629464,-8, -8, 5, 5, 8, 1, -1, -6
1503611629473,-9, -5, -3, -2, -1, -2, -3, -4
1503611629487,3, 4, -5, -3, -6, -4, -2, 2
1503611629495,1, 0, 0, 0, -2, -1, -2, 1
1503611629503,-1, -9, -5, -3, -5, -2, 0, 1
1503611629518,5, 8, -1, 0, -5, -2, -3, -1
