1503611234277,1, 0, -1, -1, 0, 0, 2, 4
1503611234290,0, -1, 0, -1, -1, 0, 0, 1
1503611234298,-1, -1, 0, 0, 0, 1, -1, 1
1503611234306,-3, -3, -3, -1, 0, -1, 0, -2
1503611234327,-1, -1, -2, -1, 0, -2, -2, -1
1503611234328,-4, -3, -2, -1, -1, -1, -2, -4
1503611234336,-2, -3, -3, 0, -1, -1, -2, -3
1503611234351,1, 0, 0, 1, -2, 0, 1, 1
1503611234358,-1, -1, -2, -1, 2, 0, 1, 3
1503611234365,-2, -1, 0, -3, -2, -1, -2, 1
1503611234380,0, -1, -1, 2, 0, 0, 1, -1
1503611234388,0, -1, 2, 1, 1, 0, -1, 2
1503611234396,0, 1, 1, -1, 0, -1, 0, 0
1503611234410,1, 1, -2, -2, 1, -1, -1, -1
1503611234418,-1, -3, -1, -1, -2, -2, 0, -2
1503611234425,-2, 0, -1, 1, -2, -1, -1, -1
1503611234441,0, 0, 0, -2, -1, -1, 1, 1
1503611234448,-1, -1, -2, -1, -2, 0, 0, 0
1503611234456,1, 1, 2, 0, -1, 0, -1, -1
1503611234470,-4, -1, -2, -1, -2, -1, -1, -3
1503611234478,1, -1, 1, -1, 1, -2, -3, -2
1503611234485,2, -1, -1, 0, 1, -1, 0, 1
1503611234501,-2, -3, -1, 1, -1, -1, -2, -1
1503611234508,0, 0, 0, -1, 0, -3, 0, 1
1503611234516,-2, -2, -2, -2, -2, 0, -1, 0
1503611234531,-1, 0, -2, -1, -2, 0, -1, 0
1503611234538,-2, -1, -1, -3, 0, -2, -1, -3
1503611234545,-1, -2, -1, -2, -1, -1, -3, -1
1503611234563,0, 3, -1, -1, -2, -1, -3, -4
1503611234569,-2, -1, -2, 0, 1, 0, -2, 0
1503611234576,-1, 0, -2, 1, -1, -2, -1, -1
1503611234590,0, 1, 1, -1, -2, -2, 0, -1
1503611234598,1, -1, 0, 0, 0, 1, -1, 0
1503611234605,2, 2, -3, -1, -2, -2, -3, -3
1503611234620,1, 3, 0, 0, 0, -1, 0, 2
1503611234630,-1, -3, -4, -2, -1, -2, -2, -2
1503611234636,-1, -3, -1, -1, -1, -1, -3, 0
1503611234651,0, -1, 1, 0, 0, 0, 0, -3
1503611234658,-1, -1, 0, -1, 1, 2, 1, 1
1503611234665,-2, -2, -2, -1, 0, 0, -1, -1
1503611234680,-1, -2, -2, -2, -3, -2, -1, -2
1503611234688,-1, -2, -1, -1, -1, -1, 0, -2
1503611234697,4, 1, -2, -4, -3, 0, 0, 1
1503611234710,-2, -4, 0, -3, -3, -2, -2, -4
1503611234718,-2, -1, 0, -1, -1, -2, -2, -2
1503611234725,0, -1, 0, -1, -1, 1, 0, 2
1503611234740,-4, -1, -1, 2, -1, -1, -2, -5
1503611234748,-2, -1, -1, 2, 1, -1, 0, 1
1503611234756,-1, -2, -2, -1, 0, 0, 0, 0
1503611234770,0, 2, 0, -3, 0, 0, -1, -1
1503611234778,1, 3, 0, 0, 0, 0, 0, 1
1503611234785,-6, -7, -3, -1, -2, -3, -3, -4
1503611234786,-1, 0, -2, -2, -3, -1, -1, 2
1503611234800,-3, -2, 1, -1, 1, 1, 0, -1
1503611234808,0, 1, -1, 0, -1, -1, -1, 1
1503611234816,0, -1, 0, 0, -1, 0, -1, 0
1503611234830,0, 0, 0, -1, 1, 0, -1, 1
1503611234845,-1, -2, -1, 0, 0, -2, 0, 0
1503611234846,-3, -2, -2, 0, -2, -2, -1, -5
1503611234861,0, 0, -2, -2, -1, -2, -1, -4
1503611234868,2, -1, 0, 0, -2, -1, 0, -1
1503611234879,-2, -3, -1, -1, -1, -1, -1, -2
1503611234890,0, -1, 1, -2, 0, -1, 1, 3
1503611234898,-2, 2, 0, 1, -1, -2, 0, -1
1503611234906,-1, -2, -2, -2, -1, 1, -2, 2
1503611234920,-1, -3, -3, 0, -2, 0, -2, 0
1503611234928,0, 0, -3, 0, -1, -1, 0, 0
1503611234936,-2, -2, 0, 0, -2, -2, -2, -3
1503611234950,-1, -1, -1, 0, 0, -1, -4, -3
1503611234958,0, 0, -2, -3, 0, -2, 1, 1
1503611234965,1, -2, 2, 0, 1, -4, 2, -1
1503611234980,-3, -1, 0, 0, -1, -1, -2, -1
1503611234988,0, -1, -1, 0, 0, 1, -1, -1
1503611234998,-1, -2, -1, -2, 1, -2, 0, -1
1503611235010,-3, -4, -1, -2, -3, 0, -2, -3
1503611235018,0, 0, 0, -2, -2, -1, -1, 0
1503611235025,-2, 0, -1, 0, -1, -2, 0, -4
1503611235040,-1, -2, 0, 0, -1, 0, -2, 1
1503611235047,-1, -1, -2, -1, -2, -2, -1, 0
1503611235056,-2, -2, -1, 0, 0, -2, 0, -4
1503611235070,-1, -1, -1, 1, -2, -2, -1, -2
1503611235071,2, 0, -1, -3, 1, 0, 0, 1
1503611235078,-1, -3, -3, -1, 0, 0, -1, 0
1503611235085,-4, -3, -1, -1, -3, 0, -1, -3
1503611235101,1, 2, 1, 1, 0, 1, -1, 1
1503611235108,0, 2, 1, 0, -1, -1, 1, 0
1503611235123,0, -1, 0, 0, 0, 1, 0, 1
1503611235133,0, 1, -2, 0, 0, 1, -1, 0
1503611235138,2, 0, 0, 0, -1, -2, 0, -1
1503611235152,2, 0, -1, 1, -1, -1, -2, -1
1503611235160,-4, -4, 0, 1, -2, 2, -1, -2
1503611235168,2, 0, -1, 0, 0, 0, 0, 2
1503611235183,1, -1, -1, -2, 0, -2, -1, -3
1503611235190,-2, -1, 0, -3, 0, -1, -1, 4
1503611235200,0, 0, -1, -2, 0, -1, 0, 2
1503611235212,3, 0, 0, -2, -1, -1, 0, -2
1503611235220,0, -2, -1, -3, -2, -1, -2, -2
1503611235228,-2, 0, 0, -2, -1, -2, 0, 0
1503611235243,-2, -1, -1, 0, -1, 0, -1, -4
1503611235250,-1, -2, 0, -2, -1, -2, -2, -1
1503611235258,0, -1, -3, -3, -1, 0, 0, 1
1503611235272,-3, -2, 0, 1, 0, -2, 0, -3
1503611235280,-1, 0, -1, 0, -1, -2, -1, -1
1503611235287,1, -1, -1, -2, 0, 1, 1, 2
1503611235303,0, -1, 1, 0, -1, -1, 1, -1
1503611235310,0, 0, -1, 1, 0, 0, -1, -1
1503611235318,-2, 0, -1, -1, -1, -1, 1, 0
1503611235334,-1, -2, -2, -1, 0, 3, 0, -2
1503611235340,0, 0, 1, 1, -1, -1, -1, -1
1503611235348,-1, -3, -2, 0, -1, -1, -1, -1
1503611235363,-3, -4, -1, -1, -2, 0, -1, -1
1503611235370,-1, 1, -1, -3, -1, -2, -2, 0
1503611235378,1, -1, 0, 0, 0, 0, -2, 0
1503611235392,-1, -2, 0, 0, 0, -1, 0, 0
1503611235401,1, 1, 0, 0, -1, 0, -2, -1
1503611235409,-1, 0, -1, 0, -1, -2, 0, 0
1503611235422,1, 1, -2, 0, -1, -1, 1, -3
1503611235430,-1, -2, -2, 0, 0, 0, 0, 0
1503611235438,-2, 0, -3, -1, -2, -3, -2, 1
1503611235452,-4, -2, -1, -2, -2, 0, -1, -3
1503611235460,0, 0, 0, -1, 1, 1, 0, 2
1503611235468,-2, 0, -2, 0, 0, -1, -1, 0
1503611235483,1, -1, -1, 0, -1, -1, 0, 2
1503611235490,0, 1, -1, -1, -2, 0, -1, -2
1503611235498,-2, -4, -1, -1, 1, -2, -2, -1
1503611235512,-2, -2, 0, 1, -1, -1, -1, -3
1503611235520,0, 0, -1, -1, 0, -1, -3, -2
1503611235527,-1, -1, -1, -3, -2, -2, -2, 0
1503611235543,1, -1, 0, -2, 0, 0, 0, -1
1503611235550,-1, 0, -1, 1, 0, 0, 0, 0
1503611235558,0, 2, -2, -2, -1, 1, -1, -3
1503611235572,0, -1, -1, 0, 1, -1, -1, -1
1503611235580,-4, 0, -3, 0, -1, -2, -2, -3
1503611235587,-2, 0, -1, -1, -3, -2, -1, -5
1503611235603,-1, -1, 1, -1, -2, 0, 1, -1
1503611235610,-1, -1, 1, -1, -2, -1, -1, 0
1503611235618,-1, -1, -1, -2, -3, -1, 0, -1
1503611235632,4, 3, -1, -1, 0, -1, 1, 1
1503611235640,-1, -1, -2, -1, 0, -2, 0, 0
1503611235647,1, -1, -1, -3, -1, -1, -2, -2
1503611235648,0, 1, 1, -1, -1, 1, -3, -3
1503611235663,-1, -3, -2, -1, -1, -1, -1, 2
1503611235670,0, -2, -1, -1, 1, 0, 1, 0
1503611235678,-2, -1, 0, -2, -1, 0, -2, -1
1503611235692,-1, 0, -2, 1, -2, -1, 1, 0
1503611235700,4, 1, 1, 0, -1, 1, 0, 2
1503611235708,-1, -2, -1, 0, -2, 0, 0, -1
1503611235722,0, -2, -1, -1, 1, -1, -2, -1
1503611235731,2, 0, -1, -1, 1, 1, 0, 5
1503611235746,-2, 0, 0, -1, 0, 2, -1, -2
1503611235752,2, 2, -1, -3, -1, -2, -3, -1
1503611235760,2, 0, -2, -1, -2, -3, -1, -3
1503611235770,0, -1, -2, -1, 0, 0, 0, -1
1503611235783,-1, -2, -3, 0, -1, -2, -2, -1
1503611235790,-4, -2, 0, 0, 0, -3, -2, -2
1503611235798,-1, 0, 0, 0, 0, 0, 0, 0
1503611235813,-1, -3, -1, -1, 0, 0, -1, -2
1503611235842,1, 2, 0, -1, -1, -1, 0, 1
1503611235843,-1, -1, -1, 0, -1, -1, 2, 0
1503611235844,-2, -2, -1, 0, 0, 0, -1, -3
1503611235850,-1, -1, 0, 0, -1, -2, -2, -2
1503611235859,-1, -1, -1, -1, -1, -1, 1, -1
1503611235875,-2, -2, 0, 0, -2, 0, -1, -1
1503611235881,2, -1, 0, -2, -1, -2, -1, -1
1503611235888,-3, -5, 0, -1, -2, 2, -1, 0
1503611235906,-2, -2, -1, -1, 1, -3, 0, -3
1503611235910,0, 2, 1, -1, 1, -2, 0, -1
1503611235918,-3, -2, 0, -2, -2, -1, -3, -1
1503611235933,-2, 0, -2, -3, -1, -1, -2, -1
1503611235943,-1, -1, -2, 0, 0, 2, -1, 0
1503611235948,-4, -4, -1, -1, -3, -2, -3, -4
1503611235963,-1, 0, 0, -1, -1, 0, -1, -2
1503611235972,2, 0, 2, 1, 2, 1, 0, 0
1503611235978,-1, -1, 0, -1, 0, 0, 0, -1
1503611235993,-1, 1, -1, -2, -1, -1, -2, 0
1503611236001,0, -1, 0, 0, -2, 0, 0, 1
1503611236008,2, 0, -1, -1, -1, 0, 3, 2
1503611236023,-2, -1, 0, 0, -1, -2, -2, -1
1503611236030,1, -2, -1, 0, 0, 0, 1, 0
1503611236039,0, 1, -1, 0, -1, 0, 0, 0
1503611236052,1, 1, 0, -1, 0, -1, 1, 4
1503611236053,-2, 0, -2, 0, -2, -2, -1, -3
1503611236061,-1, 0, -1, 0, -1, -2, 0, -2
1503611236075,1, 0, -1, -1, -2, -2, -1, 4
1503611236083,-2, -3, -2, 0, -1, -1, -2, -3
1503611236090,1, 0, 0, -1, -2, -3, -2, -2
1503611236107,0, 0, 2, 0, -2, 0, 0, -1
1503611236119,-4, -5, -1, 0, -2, -1, -3, -2
1503611236120,-1, 0, -2, -2, -1, -1, -2, -3
1503611236121,-1, -2, -1, -2, -1, -1, 0, 0
1503611236134,1, -1, 0, -1, -2, -1, -1, 0
1503611236143,-1, -1, -2, -3, 1, -3, -1, -1
1503611236150,0, -1, -2, -1, 0, -1, -1, 0
1503611236165,0, -2, -1, 0, 0, 0, 0, 1
1503611236173,-7, -5, -2, -3, -2, -3, -2, -7
1503611236181,-1, 0, -1, 1, 0, 0, 1, 0
1503611236194,-1, -2, -1, 0, 1, -1, 1, 0
1503611236202,0, -1, 0, -3, -2, -1, 0, -1
1503611236210,-1, 2, -1, 1, -2, -1, -2, -3
1503611236225,-1, 1, -1, 1, 0, 0, -1, 1
1503611236232,2, -1, 0, -2, 0, -2, -1, 0
1503611236241,-1, 0, 0, -1, -1, -1, -2, -1
1503611236254,-1, 1, -1, -1, 1, -2, 0, 1
1503611236263,1, 0, 0, 0, 0, -1, 0, -2
1503611236270,1, -1, 1, 0, -1, 1, 0, 0
1503611236285,1, -2, -1, 0, -2, -2, 2, 3
1503611236292,0, 0, -2, -1, 0, 0, -2, 0
1503611236300,0, 1, 2, -2, 1, 0, -1, -2
1503611236301,-3, -4, -4, -2, -1, 0, -3, -4
1503611236314,1, 0, -1, -3, 0, 0, 1, -1
1503611236322,-3, -1, -1, -2, -2, -1, -2, -3
1503611236330,-1, -1, -1, 1, 0, 0, -2, 1
1503611236345,2, 0, -2, 0, -1, -2, 0, 2
1503611236353,-2, -2, 0, -2, -2, -2, 0, -4
1503611236360,0, 1, -1, -1, 1, -1, 0, -1
1503611236361,-3, -2, 0, -1, 0, 1, 0, -2
1503611236375,-1, -1, -1, 1, -1, -2, 0, -1
1503611236383,0, 0, 1, 0, 0, -1, -1, -2
1503611236390,0, -2, -2, -2, -3, -1, 0, -1
1503611236405,-2, -2, -2, 1, -2, 0, -2, -2
1503611236413,-1, 0, -1, -1, -1, -2, 0, -1
1503611236421,-2, 0, 0, 0, -1, -1, 0, 2
1503611236434,-3, 0, 0, -2, -1, -1, -1, -1
1503611236443,3, 3, -1, -1, 0, 0, -1, 0
1503611236450,1, 1, -3, -2, -1, -1, 0, 1
1503611236465,0, 0, -1, -1, -1, -2, 0, 0
1503611236482,0, -2, 0, 1, 0, 0, 1, 1
1503611236484,0, -2, -1, 0, 0, -1, -1, 0
1503611236494,-2, -3, 0, 0, 0, -2, 1, 0
1503611236502,-2, -1, 0, -2, -1, -2, -1, -2
1503611236511,2, 1, 0, 0, -1, 0, -1, 1
1503611236525,-1, 0, 0, 0, -1, -1, -2, 0
1503611236533,0, 1, -1, -1, -1, -1, -2, 1
1503611236547,-2, -3, 0, 0, 1, -2, -1, -2
1503611236554,0, -1, -2, -1, 1, -1, 1, 0
1503611236562,-1, -2, -1, -1, -1, -1, 0, 0
1503611236570,-1, -2, 0, -1, 0, 1, -1, -3
1503611236585,-5, 1, -1, -2, -1, -3, -2, -5
1503611236593,2, -1, 1, 0, 0, 0, 0, -2
1503611236600,1, 0, -1, -2, 0, 0, -1, 1
1503611236615,-4, 1, -1, -1, 1, -1, -2, -4
1503611236623,-4, -3, -3, -2, -2, 0, -2, -5
1503611236630,-2, -1, -2, -2, -1, -1, -2, -2
1503611236646,0, 0, 0, 1, 0, -1, 0, 0
1503611236652,-1, -2, 0, 0, -2, -2, -1, 0
1503611236661,0, 0, 0, 1, 0, 0, -1, -2
1503611236683,-3, -1, -2, 1, -1, -1, -3, -3
1503611236684,0, 0, -2, -2, -3, -2, 0, -2
1503611236690,0, 0, -1, 0, 0, -2, -1, 0
1503611236705,-2, -1, 0, -1, -1, 0, 1, 1
1503611236713,-2, -1, -1, -2, -2, -1, 0, -1
1503611236721,-1, 1, -1, -1, 0, -1, -1, 3
1503611236734,2, 1, 0, 0, 0, 1, 0, 2
1503611236744,1, 0, 0, 0, -1, 0, 0, -1
1503611236750,0, -2, -2, -1, -1, -2, -2, 0
1503611236765,0, -1, -1, -1, -1, 1, 0, -1
1503611236772,0, 0, -1, -2, 0, 1, -1, 0
1503611236781,0, 0, 0, 0, 0, -1, -2, 1
1503611236794,-3, -1, -2, -2, -1, 0, -2, -2
1503611236802,-4, -3, -3, -1, -1, -2, -2, -2
1503611236812,2, 2, -1, 1, -1, -1, 0, -1
1503611236825,1, 0, -2, 0, -1, -1, 3, 1
1503611236832,-1, 0, -1, -2, 1, 0, -1, -3
1503611236841,0, -2, 0, -2, 0, -1, -1, 0
1503611236854,-2, -4, -1, 0, 0, 1, 0, 0
1503611236862,-1, -2, -1, -2, -3, -1, -3, -1
1503611236870,-3, -2, 0, -2, 0, -4, 0, -2
1503611236886,0, 0, -1, -2, -1, -1, -1, 1
1503611236892,1, 1, -1, -2, -1, -2, -1, 2
1503611236900,-2, -1, -1, -1, -1, -2, 0, -1
1503611236901,1, -1, -1, 0, -1, -1, 0, -1
1503611236915,0, -3, -1, 1, -1, -1, -1, -2
1503611236922,1, -1, -2, -2, -2, -1, 1, 0
1503611236930,-1, -1, -2, 0, -2, 0, -1, -4
1503611236945,-2, -2, -1, -2, 0, -2, -2, -3
1503611236953,-1, 1, 1, 0, -1, 0, 0, 0
1503611236960,0, -1, -1, -1, -1, 0, 0, -2
1503611236974,-3, -4, -2, 1, 0, -2, 1, 1
1503611236982,-1, -1, 1, -1, 0, 0, 0, 0
1503611236997,-2, 0, -1, -1, -2, 0, -1, -1
1503611237005,-1, -1, -2, 1, -1, -1, -1, 2
1503611237013,1, 0, -1, 1, -1, -1, -2, 0
1503611237027,-1, 1, 0, 1, 0, 0, -2, -1
1503611237034,2, 1, 1, -1, 1, 1, 1, -1
1503611237042,2, 2, 0, -1, 2, -1, 1, 0
1503611237057,-2, -1, -2, -1, 0, -1, -1, -1
1503611237065,-3, -4, -3, -3, -2, 0, -1, -4
1503611237072,-1, 1, 1, -1, -1, -2, -2, -2
1503611237088,-3, -1, -2, 0, -2, -1, -2, -2
1503611237095,0, -1, -1, 0, 0, -2, 0, 0
1503611237102,-1, -2, 0, 0, 0, -1, 2, 0
1503611237117,-3, -3, -2, -1, -2, -1, -2, -1
1503611237125,-3, -1, -1, 0, -1, -1, -2, -3
1503611237132,1, 0, -1, -1, 0, 0, 0, 0
1503611237147,-2, -5, -1, -1, -1, 0, -1, -3
1503611237148,0, 0, -1, 1, -2, -1, 0, 2
1503611237156,0, 0, -2, -1, -2, -1, -3, -3
1503611237162,-2, -2, 0, -2, 1, -1, -2, -3
1503611237177,0, -1, -1, 0, -2, 1, 1, 1
1503611237185,-1, -1, -1, -1, -2, -1, -1, -1
1503611237192,-1, -1, 0, -1, -1, 0, 0, -1
1503611237207,0, 0, -1, -3, -1, 0, 0, 0
1503611237214,1, 2, 0, 0, -1, 0, 0, 1
1503611237223,0, 1, -1, -1, -1, 1, -2, 0
1503611237237,-2, 0, -1, -1, -1, 0, -2, -3
1503611237247,2, 0, 1, -1, 0, 0, -2, 0
1503611237252,0, -1, -1, 0, 0, 0, 1, 0
1503611237253,-3, -1, -1, 0, -1, 0, -1, -2
1503611237267,-1, -2, 0, 2, 0, 0, 0, -3
1503611237274,0, -1, 0, -2, -1, -2, 0, -2
1503611237283,0, 0, -2, -2, 0, -1, -1, 0
1503611237297,2, 3, 0, -1, 0, -1, -1, 1
1503611237305,1, -1, -1, -1, -1, -1, -3, 2
1503611237315,-1, 0, -1, -1, -1, 1, 0, -2
1503611237327,1, -1, -2, 0, 0, -3, -1, -2
1503611237334,-2, -3, -1, -2, -2, -1, -2, -3
1503611237342,-3, -2, 0, 0, -1, -2, -1, 0
1503611237357,-1, -3, 0, -1, 0, -3, -1, 2
1503611237365,-2, 1, 0, 0, -1, -1, 0, -2
1503611237372,-5, -6, -1, 1, 0, -1, -2, -3
1503611237387,-2, -1, 0, -1, -1, 0, 1, 0
1503611237402,2, -1, -3, -1, -2, -2, -1, 0
1503611237403,0, -2, -1, 0, 0, 0, -1, 1
1503611237417,0, -1, 0, 0, -1, -1, -1, -2
1503611237425,1, -1, -1, -2, -1, -2, -1, 1
1503611237432,2, 1, -1, 0, 0, -1, 2, 2
1503611237449,-1, -1, -1, -2, -2, -1, 0, -2
1503611237454,-1, 1, 2, 0, -1, 0, 0, -1
1503611237462,1, -1, 1, -1, 0, -2, -3, 1
1503611237477,-4, -2, 0, -2, -2, 0, -2, -3
1503611237485,-1, 0, -2, -2, -2, 0, -3, -2
1503611237492,-1, -1, -2, -1, -2, -1, -2, -3
1503611237508,-2, -2, -1, -1, -2, -1, -1, -5
1503611237516,-1, -3, 0, -2, 1, 0, -1, -1
1503611237522,0, 0, -3, -1, -1, 0, -1, 2
1503611237537,1, 0, -2, -2, -1, -1, 0, 3
1503611237545,-2, -1, 1, 2, 1, 0, 0, -3
1503611237553,2, 1, -1, 0, 0, -1, 0, 0
1503611237567,-2, 1, 0, 0, 0, -1, 0, -1
1503611237574,-3, 0, 0, -1, 2, -2, -1, 0
1503611237583,-1, -3, 1, -1, 0, 0, -2, -4
1503611237597,1, -2, -2, 0, 0, 1, 1, 1
1503611237605,1, 1, 1, -1, -1, -2, 1, 0
1503611237612,0, -1, 0, 1, -2, 0, -1, 2
1503611237628,-2, -2, -1, 0, 0, -2, -1, 0
1503611237634,-3, -2, -1, -2, -2, -3, -3, -3
1503611237643,0, -1, -1, -1, -2, -1, -2, -2
1503611237657,-4, -4, -1, 0, 1, 0, -2, -4
1503611237665,-2, 0, 0, -1, 2, 0, 0, 0
1503611237672,-2, -1, -2, -2, 0, -1, -1, -2
1503611237673,-1, 1, 0, -1, 0, -2, 0, -1
1503611237687,0, -1, -2, -1, -2, -1, 0, 0
1503611237694,-1, 1, -1, 1, -2, -2, -1, -1
1503611237702,1, 0, 0, -1, 0, -1, -1, 3
1503611237717,-2, -4, -2, -1, -1, -1, 2, 2
1503611237718,0, -1, -1, -1, -2, -1, 0, 0
1503611237725,3, 2, 1, -1, -3, -1, 2, 2
1503611237732,0, -1, -2, -1, -1, 1, -1, 0
1503611237747,-2, -2, -2, 0, 0, -2, -2, -2
1503611237754,1, 0, -1, -1, -2, -2, 1, -1
1503611237764,1, -1, -1, -2, -1, 1, -2, 0
1503611237777,0, -1, 0, -1, -1, 0, -1, -1
1503611237785,-2, -2, -1, -1, -1, 1, -2, -2
1503611237793,-1, -1, -1, -2, -1, 1, 0, 0
1503611237807,-1, -1, -2, -1, -2, -1, 1, -1
1503611237814,-4, -3, -2, 1, 0, -2, 0, -1
1503611237822,-2, 0, -1, -1, 1, -1, -1, -2
1503611237837,-1, 2, -1, -1, -2, -2, -1, -2
1503611237845,0, 1, 0, 1, -1, -1, -2, 0
1503611237853,-1, -2, -1, -2, -2, -2, 0, 2
1503611237867,-4, -2, 1, 0, 0, -1, -1, -5
1503611237874,0, -2, -1, -2, 0, -1, -1, -1
1503611237882,0, -1, -1, -2, -1, 0, -2, 0
1503611237897,0, 1, 0, -1, 0, 0, -1, 0
1503611237905,-3, -4, -3, -1, -1, -4, -2, -2
1503611237919,-2, -3, 0, -2, 0, -2, -1, -1
1503611237927,-1, -1, -1, 0, -1, 0, 2, 0
1503611237934,3, 1, 0, -1, 0, -1, 0, 2
1503611237952,-1, -2, -1, -1, -1, -1, -1, 0
1503611237957,-1, 1, 0, -1, 1, 1, -1, 1
1503611237965,-1, 2, -1, 1, 1, 0, 1, 3
1503611237979,-1, 1, -1, -1, -1, -1, -2, -3
1503611237988,1, 0, 0, -1, 0, -1, 0, 0
1503611237994,-1, -3, -2, -1, -1, 0, 0, 1
1503611238010,1, 0, -1, 0, -3, 0, -1, -1
1503611238020,1, 0, 1, 1, -2, 1, -1, -1
1503611238025,-1, -2, 0, -1, 0, -1, 0, 0
1503611238039,1, -1, 0, -2, -1, -1, -1, -3
1503611238047,0, -2, -2, -2, 0, -2, -2, -1
1503611238054,0, 0, -2, 0, -1, -1, -1, -2
1503611238070,1, -1, -2, -1, 0, 1, -1, 0
1503611238078,-3, 0, 0, 0, 0, 0, -1, -2
1503611238086,-2, -2, -1, -1, 0, 0, -1, -2
1503611238100,-2, -2, -1, -2, 0, -2, -2, -1
1503611238107,-1, -1, -1, -1, -1, -1, -1, -4
1503611238116,-4, -2, -2, -2, -3, -2, -1, -3
1503611238130,0, 2, 1, 0, -1, 0, 1, 0
1503611238138,-2, 0, -1, -2, -1, -1, -1, -1
1503611238145,-2, -1, -3, 0, 0, 0, -1, -1
1503611238161,0, 0, 0, 2, -1, 0, -1, -1
1503611238168,-1, -2, -2, -2, -2, -1, -2, -3
1503611238176,-1, -2, -2, -1, 0, -1, -1, 1
1503611238190,-1, 0, -1, 0, -1, -1, 1, 0
1503611238198,2, 2, -1, 1, 0, 1, 0, -1
1503611238205,1, 0, -1, 0, -2, -1, -1, 0
1503611238221,0, -2, 0, -2, -1, 0, -1, 0
1503611238228,-1, -1, 0, -1, -1, -1, -2, -2
1503611238235,0, -2, -3, -1, 0, -1, 0, 1
1503611238250,-1, -2, -1, -2, -3, -2, 0, -1
1503611238258,0, 0, -2, 0, 1, -1, -1, -1
1503611238265,-3, -2, -2, -2, 0, -2, -2, -3
1503611238280,-1, -2, 1, -1, -1, -1, -2, -3
1503611238291,0, 1, 1, 2, 1, -1, 0, 3
1503611238296,1, 0, -1, 0, -1, -1, -2, 3
1503611238310,-1, 0, -2, -1, -1, -1, 0, -1
1503611238318,-3, -1, -1, -2, 0, 0, 1, -1
1503611238325,1, 0, 1, -1, 1, 1, -2, 2
1503611238340,1, 0, 0, -1, 0, -1, -1, 0
1503611238347,0, 0, 1, 0, 0, -1, 0, 3
1503611238363,0, -1, -1, -1, -2, 0, 0, 0
1503611238370,-3, -2, -1, -1, -2, -1, -2, -2
1503611238378,0, -1, 0, 0, -1, -1, -2, -1
1503611238385,1, 0, -1, -1, -1, -2, -2, -2
1503611238400,1, 0, -2, -1, 0, 0, 0, 0
1503611238407,0, 0, 0, 0, -1, 0, -2, 0
1503611238416,1, 2, -2, 0, -1, -1, -1, 0
1503611238430,-4, -5, 0, -1, -1, -2, -2, -3
1503611238438,-2, -2, 0, -1, 1, -1, -1, -3
1503611238445,0, 1, 0, -2, -1, 1, 1, 1
1503611238461,-2, -1, -1, -1, -2, -1, -1, -2
1503611238467,1, 0, -1, 0, 0, 0, 0, -1
1503611238475,-1, -2, -2, 0, -2, -1, -1, 0
1503611238490,1, 0, -2, 0, -1, -1, 0, 0
1503611238498,0, 0, -2, -2, 0, -3, -1, -1
1503611238505,-3, -3, -1, -1, -1, 0, 1, 1
1503611238523,1, -1, 0, 0, -1, 1, -1, 0
1503611238528,-2, 0, -4, -3, -2, -2, -3, -5
1503611238542,-1, -2, -2, 0, -1, 0, -3, -1
1503611238550,-1, 0, 1, 1, 0, 0, -2, -2
1503611238558,0, 0, 0, -2, -1, -2, -2, -2
1503611238565,1, 2, 0, -1, 0, -1, 1, -1
1503611238580,-1, 0, 3, 1, 0, 0, -1, -1
1503611238593,-1, -2, 1, -1, -3, -1, -1, 0
1503611238603,1, 0, -2, -2, -3, -1, 0, 0
1503611238610,1, 0, 0, -1, 1, -1, -1, 0
1503611238618,0, -3, -3, -1, -1, -1, 0, 1
1503611238627,-2, -1, -1, -1, -1, 0, 0, 0
1503611238640,-2, 0, 0, -1, 0, -1, 0, -3
1503611238647,-3, -5, -2, -1, -1, -1, 1, 0
1503611238662,-3, -1, -1, -2, -2, -1, -2, -3
1503611238677,0, 0, -1, -1, 0, -2, -1, -2
1503611238678,0, -1, 0, -1, 0, 1, 0, 2
1503611238697,0, 1, 0, 0, 0, 0, 0, 0
1503611238701,-1, 0, 0, 0, -1, -1, 1, -2
1503611238707,0, 0, -2, -2, -1, -1, -1, -4
1503611238724,-2, -2, 0, -1, 0, -1, 0, 0
1503611238730,1, 0, 0, -2, -1, 0, 0, 0
1503611238738,1, -1, 0, 0, -2, 1, -1, 0
1503611238745,1, -2, -1, -1, -1, 0, 1, 0
1503611238768,0, 1, 0, -1, 0, -1, -2, -2
1503611238785,-1, 0, 0, 0, -1, -1, -2, -3
1503611238792,-1, 0, -2, 0, -1, -1, -1, 1
1503611238798,1, 0, 0, 0, 1, -1, 0, 3
1503611238805,-3, -4, 0, -1, -2, -1, -2, -3
1503611238820,0, -2, -2, -1, -1, -2, -1, 1
1503611238828,0, -2, -2, 0, -2, 0, -1, -1
1503611238843,-2, -4, -6, -3, -1, -3, -3, -4
1503611238850,-3, -1, -2, -1, -1, -2, 0, -1
1503611238859,-4, -3, -1, -1, -3, -1, -2, -3
1503611238872,-1, -2, -2, 1, -1, 0, -1, -2
1503611238880,0, 1, 2, -1, 0, 2, 0, -3
1503611238887,0, 1, -1, -1, 0, -1, -1, -2
1503611238902,1, 1, 1, -2, 0, -2, 1, 0
1503611238910,1, 0, 0, -1, 0, 1, -1, 3
1503611238918,1, 0, -3, -2, -1, -2, 0, -1
1503611238932,-2, 0, -1, 0, -1, 0, -2, 2
1503611238940,1, 0, 3, 2, 0, 0, -2, -1
1503611238947,1, -2, 0, 0, -1, 0, 0, -2
1503611238962,1, 1, -2, -1, -1, -1, 0, -3
1503611238971,-2, -2, -1, -1, -2, -2, 0, -5
1503611238978,1, 1, -1, -1, 1, 0, 0, 2
1503611238993,3, 2, 0, -1, -2, 0, 0, 1
1503611239001,0, 0, 0, 3, -1, -1, 0, 1
1503611239007,-2, 1, 0, 0, -1, -1, 0, -1
1503611239023,-2, -2, 0, -2, -2, 0, -1, 0
1503611239030,3, 2, 0, 1, 0, -1, -1, 2
1503611239038,0, 0, -1, -2, -2, 0, -1, -3
1503611239052,-2, 0, -2, -1, -1, -1, 0, 1
1503611239061,-5, -2, 0, 0, -1, -1, -2, -9
1503611239069,0, -3, 0, -1, 2, 0, -1, -2
1503611239082,-1, 0, -1, -1, -2, -2, 0, 3
1503611239090,-2, -2, 0, -1, 1, -2, -1, -3
1503611239098,0, -1, -2, 0, 0, 0, 0, 1
1503611239112,-1, -2, -1, 0, -2, 0, -2, -1
1503611239120,1, 0, -1, 0, -2, -2, -1, -2
1503611239128,-2, -1, -1, -2, 0, -1, -1, -2
1503611239142,1, 0, -2, -2, -2, 0, -2, 1
1503611239150,-3, -1, 1, -1, 0, -1, 1, -1
1503611239160,-1, 1, -1, -1, 1, -1, 1, 1
1503611239172,3, 0, 0, -1, 1, 0, -1, 2
1503611239173,0, -2, -1, 0, 0, -1, 0, 0
1503611239180,-2, -1, -1, -3, 0, -1, -1, 0
1503611239187,-1, -2, -3, 0, -2, -2, -2, -4
1503611239202,-1, -2, -2, -1, 0, -2, -2, -4
1503611239203,-1, -2, -1, 2, 1, -1, 0, 0
1503611239210,2, 2, 1, -1, -1, 0, -1, 0
1503611239218,0, 1, 0, -3, -1, 0, 1, 2
1503611239233,-1, -1, -1, -1, -1, -2, -2, -4
1503611239240,-1, 2, -1, 0, 0, 0, -1, 1
1503611239247,0, 0, 0, 0, -1, 0, -1, 1
1503611239263,0, -2, -2, -2, -3, -1, -1, -2
1503611239270,-1, -1, 1, 1, -1, -3, 1, 1
1503611239278,-4, -2, -1, -1, -1, -1, -1, -2
1503611239295,1, 0, -1, -1, -1, 0, -1, 2
1503611239301,-2, -1, 0, -2, -1, 0, -2, -2
1503611239307,0, -4, -2, -1, 1, 1, 0, 3
1503611239322,1, -2, -1, 0, -2, -1, 0, -1
1503611239331,-1, 3, -1, -2, -1, 0, -1, -2
1503611239338,0, 0, 0, -1, 0, -1, 0, 0
1503611239352,-1, -1, -1, 0, -1, -1, -3, -4
1503611239362,0, 0, -1, 0, -3, 0, -1, 1
1503611239368,-1, 0, 0, -2, -2, 0, -2, 0
1503611239382,-1, -1, -1, 0, 1, -1, 0, 0
1503611239390,-4, -2, -2, -1, -2, -2, -1, -2
1503611239399,-1, -1, -2, 0, -1, -1, -2, -1
1503611239412,-1, -4, -1, -1, 0, -1, 0, -2
1503611239420,1, 0, -1, -2, -1, -1, 0, 2
1503611239429,-1, -1, -2, -2, -1, -2, -2, -1
1503611239442,0, -1, -1, -1, 0, 0, 2, 1
1503611239450,0, 0, -1, -2, -2, -2, -1, 0
1503611239458,-1, 0, -3, -2, -2, -2, -4, 0
1503611239473,-2, -2, -2, -2, 0, -3, -1, 0
1503611239480,-3, -1, 0, -1, -1, -2, -1, -4
1503611239487,-1, -2, -1, -1, 1, 0, 0, 0
1503611239503,0, -1, 1, -1, -1, -1, 0, -3
1503611239510,-1, -1, 1, 0, -2, 0, 0, -1
1503611239518,3, 3, 2, 1, 0, 0, 0, 2
1503611239532,0, 1, -1, -1, -1, -1, 0, -2
1503611239540,-1, 0, -2, -1, 0, -2, -1, -3
1503611239547,-2, 1, -1, 2, -1, -1, -1, -3
1503611239563,-1, -3, 0, 1, -1, 0, -1, -1
1503611239570,1, -1, -1, -1, -2, -1, -1, 1
1503611239578,0, -3, 0, 0, -3, 0, 1, 1
1503611239592,-1, -3, -2, -2, -1, -1, -2, -1
1503611239601,7, 3, -1, 1, 3, -1, -1, 3
1503611239607,3, 1, 0, -1, -1, 0, 0, 1
1503611239623,-7, -1, -2, 0, 0, -2, -2, -6
1503611239634,-2, -2, -3, -4, 2, 0, -2, -2
1503611239638,5, 1, -2, -3, -2, -1, -2, -1
1503611239652,-1, -2, 1, 0, -2, 1, -1, -1
1503611239660,3, 0, 1, -1, 1, 1, 1, 2
1503611239667,-1, -1, -2, -1, -1, -1, 0, 0
1503611239683,-2, -1, 0, -1, -2, 0, -2, -3
1503611239690,3, 1, 1, 1, 0, -2, 1, 1
1503611239699,0, -1, 0, -3, -4, 0, 1, 3
1503611239712,0, 0, 0, 0, -1, -1, 2, 1
1503611239720,-6, 0, -1, -2, -2, -3, -2, -2
1503611239727,1, -1, -2, 0, -1, -1, -1, 1
1503611239743,2, -1, 0, -3, -1, 0, 0, 1
1503611239750,-12, -3, -2, -1, 0, -1, -3, -7
1503611239758,-10, -5, -2, 1, 0, 2, 0, -7
1503611239772,2, 0, -1, -5, -4, 0, 0, 0
1503611239780,2, 1, 0, -1, -4, 0, -2, 2
1503611239796,8, -1, -3, -7, -2, -1, -3, 0
1503611239803,-27, -10, -9, -28, -19, -6, -6, -8
1503611239810,-3, 1, 2, 3, -3, 1, 0, 1
1503611239827,6, -1, 0, 4, 4, -2, 0, 2
1503611239832,-2, -1, -3, -1, 0, 1, -1, -3
1503611239840,4, 4, 1, 7, 5, 0, 1, 1
1503611239855,4, 0, -1, 6, 2, 0, 0, -3
1503611239864,-10, 1, 2, 4, 2, 1, -2, -7
1503611239870,-48, -13, -4, -3, -1, -3, -3, -12
1503611239885,11, 4, -2, 3, 5, -2, -2, -3
1503611239892,13, 4, 1, 0, -5, -2, -1, 8
1503611239901,-17, -9, -6, -6, 2, -4, -3, -12
1503611239915,3, -1, -4, -17, -16, -6, 0, 3
1503611239923,14, 1, -1, -4, 9, 10, 17, 9
1503611239932,14, 2, 4, 8, 4, 6, 6, 1
1503611239945,9, 0, 1, 5, -2, -1, -3, -1
1503611239959,3, 1, 0, 7, 2, 0, 1, 1
1503611239961,3, 0, -1, 2, -2, -3, -3, 3
1503611239975,-17, -6, 0, -2, -3, -3, -3, -4
1503611239990,-3, -2, -1, -2, -2, -1, -1, 1
1503611239992,2, 2, 0, 1, 6, 0, -1, -1
1503611240005,8, 1, 1, 0, -2, 0, -2, 3
1503611240012,-2, 1, 0, 1, -2, 0, -2, -2
1503611240020,5, -1, -3, -7, -2, -4, -5, -1
1503611240035,2, -3, -3, -14, -6, -5, -2, 1
1503611240043,-19, -7, 3, 1, -51, -19, -5, -3
1503611240050,-1, -8, -7, -10, 16, 9, -3, -7
1503611240065,0, 1, 2, 7, -43, -6, 1, 6
1503611240072,-5, -6, -14, -17, 24, -1, -2, -5
1503611240073,1, -3, 1, 4, -8, -6, -3, -1
1503611240081,-3, -4, -2, 4, -1, -3, -1, 0
1503611240095,8, 1, 6, 5, 6, 1, -1, 2
1503611240103,4, -5, -10, -1, 9, 0, 0, -1
1503611240110,-4, 1, -5, 0, -3, 2, 1, -2
1503611240125,10, 9, 3, -4, 24, -7, -3, 2
1503611240133,0, 4, 4, 2, 4, 6, 0, 1
1503611240141,-3, -1, 1, 2, 7, 2, 0, -4
1503611240155,-1, -6, 1, 23, -3, -2, 3, 3
1503611240163,1, -2, 1, -20, -13, -8, -2, -1
1503611240170,8, 18, 23, 10, 20, 12, -2, 2
1503611240185,-1, 13, 12, 5, 1, 8, 3, -1
1503611240192,-8, -25, -26, -9, -7, -8, -4, -5
1503611240201,2, 3, 11, -7, 12, 1, 0, 0
1503611240215,5, -2, -7, 0, 9, 3, 2, 1
1503611240223,-1, 27, 8, 4, 22, 15, -1, -4
1503611240230,-1, -13, -8, -5, 14, 30, 0, -3
1503611240245,-5, -14, -14, 3, -13, -13, -1, -1
1503611240252,-2, 1, -7, -17, -30, -40, 0, -1
1503611240260,0, -5, 3, -16, 3, 7, 0, 0
1503611240276,2, -8, 8, 8, 22, 22, -1, -1
1503611240283,0, 12, 27, 4, 3, -4, -3, 1
1503611240290,-1, 19, 1, 3, -7, -10, -2, 2
1503611240306,5, 10, -14, 5, 13, 12, -1, 0
1503611240313,0, 22, 0, -4, 0, -2, -1, -1
1503611240320,-8, -10, -23, -12, -27, -16, -5, -3
1503611240336,6, 4, 0, 1, -1, -2, 1, 3
1503611240343,2, 27, 22, 12, 11, 7, 5, 4
1503611240350,-1, 4, -2, -10, -18, -13, -9, -4
1503611240368,19, -33, -2, 17, 20, 22, 9, 15
1503611240372,2, 2, -13, -24, -17, -4, 12, -2
1503611240380,7, -31, -37, -12, -5, -12, -18, 10
1503611240395,-12, -26, -2, 3, 1, 6, 8, 4
1503611240403,-31, -90, -34, 10, 31, 23, 5, -41
1503611240410,23, -59, -31, -24, -24, -20, -5, 38
1503611240425,82, 65, -4, -25, -54, -45, -26, -4
1503611240434,-11, 15, 25, 32, 56, 32, 10, -11
1503611240441,-4, -78, -22, -2, 19, 28, 11, 17
1503611240455,-2, 77, 18, -26, -61, -34, -38, -66
1503611240463,-34, 121, 59, 21, 37, 31, 7, -20
1503611240470,-51, -56, -17, -7, -1, -4, 1, 28
1503611240485,-40, -65, -25, -39, -33, -42, -31, 15
1503611240492,-93, 76, 38, 9, 14, 5, -15, -35
1503611240502,8, -76, -19, 24, 11, 23, 33, 35
1503611240515,9, -55, -15, 1, -36, -20, 1, -9
1503611240523,-5, -9, -11, 14, 29, -1, 1, -21
1503611240530,28, -45, -3, 6, -1, -1, 15, -2
1503611240545,84, -79, -33, 21, 22, 8, -6, 66
1503611240552,62, -20, 10, 44, -58, -16, -10, 34
1503611240560,-2, -8, -4, -2, -62, -3, 1, -11
1503611240576,-5, 27, -13, -70, 20, 23, 2, -7
1503611240583,-18, 67, 32, 8, 18, -2, 9, -20
1503611240590,2, 5, 7, 28, 2, -24, -1, -3
1503611240605,-21, 37, 20, -1, -2, -10, 2, -12
1503611240612,11, -30, -20, -2, 19, 0, 2, 20
1503611240620,-29, 11, 8, -8, -7, -8, -11, -14
1503611240636,7, 10, 2, -3, 17, 11, 2, 4
1503611240644,-13, 62, 26, 2, -8, -7, -12, -18
1503611240650,3, 1, 1, 5, 8, 2, 2, 0
1503611240665,1, -27, -9, -8, 0, -4, 5, 0
1503611240672,-10, 20, 13, 13, 32, 33, 6, -2
1503611240680,-1, 13, 0, 3, 0, 1, -1, -10
1503611240695,4, -13, -5, -1, 0, 8, 0, -2
1503611240703,-5, -3, -2, 0, 2, 8, 6, -1
1503611240717,5, -5, -6, -3, -3, -3, 3, -1
1503611240725,-2, 8, 3, -1, -2, -8, -2, -5
1503611240732,2, 1, -1, -3, 0, -5, -1, -1
1503611240747,-4, -7, -1, 0, 8, 2, 0, -1
1503611240755,-2, -4, -3, -2, -5, -7, -5, -2
1503611240763,4, -18, -21, 0, -4, -3, 0, -1
1503611240778,4, 5, 10, 4, 0, -3, 0, 2
1503611240785,-11, -5, -12, -17, -6, -5, -2, -2
1503611240792,-1, -1, 12, 4, 2, 0, -2, -2
1503611240807,0, -8, -4, -2, 1, -4, -1, -1
1503611240815,3, -3, -10, -6, -4, -1, 1, -2
1503611240823,-2, 8, 5, 4, 2, -5, -3, -2
1503611240837,-1, 0, -5, -2, 0, 0, -2, -2
1503611240845,2, 4, 7, 4, 0, 3, 2, 2
1503611240852,7, -1, -1, -1, 2, -1, -2, 2
1503611240870,11, 8, 4, -4, -5, -5, 1, 3
1503611240875,3, -1, -5, 1, 0, -1, 1, 3
1503611240883,10, 3, 1, -3, -2, -3, -4, -2
1503611240896,7, 1, 0, -6, -5, -2, -1, 3
1503611240905,-11, -5, -4, -10, -5, 0, 1, -3
1503611240912,-4, -11, -7, 2, 1, -2, -2, -2
1503611240927,-1, 1, 9, 1, -2, 0, -3, -2
1503611240937,-5, -3, -4, -6, -8, -4, -2, -4
1503611240943,-3, 1, -2, -4, -2, 4, 1, -1
1503611240956,2, -2, -3, -1, -2, 0, -1, 0
1503611240965,-2, 0, -1, -2, 0, 0, -2, -1
1503611240972,-1, 3, 1, 4, 0, 1, 0, 3
1503611240987,1, -5, -5, -3, -1, -3, 2, 5
1503611240995,1, 3, 2, 0, 5, 2, 5, -3
1503611241005,-8, -5, 0, 1, -2, -4, -3, -8
1503611241017,-2, -5, -4, 2, 15, 0, -4, -6
1503611241025,-4, 3, -2, -8, -5, -1, 3, -1
1503611241032,-8, 0, -1, -4, -10, -5, -3, -3
1503611241047,2, -4, -10, 0, 4, 0, -1, -1
1503611241055,-3, 5, 4, -5, -2, -2, -2, 1
1503611241063,-1, -6, -2, 0, -3, 1, -2, 0
1503611241077,1, 0, -2, -5, 10, 2, 2, 2
1503611241085,2, 5, 4, -3, -31, 0, 4, 6
1503611241092,3, 0, 1, 3, -18, -5, -3, 0
1503611241107,-2, -2, 0, 19, 29, 3, -1, -2
1503611241115,-10, -4, -5, -2, -5, 0, -4, -9
1503611241123,-1, 4, 6, -5, 4, -3, 6, -1
1503611241137,-10, -8, -9, -15, 37, 0, -11, -4
1503611241146,1, 3, -2, -6, 9, 4, 3, 3
1503611241152,-1, -3, -4, -2, -31, -6, 5, 1
1503611241167,-10, -8, -6, -13, -12, -3, -4, -2
1503611241175,4, -1, 3, 23, -18, -1, -1, 2
1503611241183,3, -1, -5, 8, 64, 8, -4, -6
1503611241196,3, -7, 12, 0, -2, 1, 1, 4
1503611241205,9, -1, -13, -4, -26, -7, -14, -3
1503611241213,8, -2, -13, -2, 15, 3, -1, 0
1503611241227,-4, 40, 18, -1, -15, -6, -6, -10
1503611241242,2, 9, 5, 2, -10, -4, -1, -1
1503611241244,6, -17, -2, -2, -8, 4, 3, 1
1503611241256,3, 77, 34, 2, 0, -4, -6, -9
1503611241265,-5, -16, 4, 4, 3, 2, 4, 5
1503611241273,-8, -58, -39, -11, -3, 0, -1, -2
1503611241287,2, 31, 18, 5, -10, -4, 0, 2
1503611241295,10, 4, -8, -5, 2, 0, -1, -1
1503611241305,-1, -3, 5, 3, -3, -1, 0, 2
1503611241317,4, -5, 0, 1, 5, 1, 0, 2
1503611241325,-31, -11, -2, 0, -2, -1, -3, -10
1503611241332,-16, 12, 13, 4, 0, 1, 3, 6
1503611241347,11, -14, -12, -4, -3, -2, -1, 2
1503611241355,2, -19, 4, 5, 2, 2, 1, 6
1503611241363,15, -16, -14, -5, -2, 0, 4, 3
1503611241377,11, 35, 4, -2, 2, 3, 5, 2
1503611241385,-53, -36, -19, -8, -6, -5, -7, -13
1503611241392,-2, -17, -7, -3, -4, -3, -5, -1
1503611241407,21, 24, 12, 6, 3, 1, 2, 5
1503611241415,-24, -21, -9, -5, -2, -3, -4, -6
1503611241423,6, 17, 6, -4, -13, -3, 0, 1
1503611241439,16, 5, 5, 3, -1, 0, 1, -1
1503611241445,10, 34, 8, 2, 6, 0, 0, 0
1503611241452,14, -10, 0, -5, -4, -1, 1, 1
1503611241467,-24, 1, -7, -1, 2, -2, -5, -9
1503611241475,-27, -17, -6, -1, 10, 2, -3, -7
1503611241483,28, 19, 16, 4, -2, 0, 1, 4
1503611241496,-3, -6, -10, -4, -5, 1, 0, -2
1503611241509,-18, -6, 11, 4, -1, 0, -1, -5
1503611241513,-1, -8, -8, -3, -4, -4, -4, 0
1503611241527,-16, -18, -16, -7, -3, -5, -7, -6
1503611241535,-7, 5, 7, 2, -2, 0, 6, -2
1503611241543,5, -15, -9, -5, -3, -2, 0, 0
1503611241556,-27, -11, -5, -2, -3, -4, 1, -8
1503611241565,-19, -16, -4, -2, -1, 0, -4, -10
1503611241573,-3, 8, 5, 3, -2, 0, 0, 0
1503611241587,18, -5, -2, 0, 0, -2, -1, 2
1503611241595,-21, -7, 2, 1, -3, -1, -5, -5
1503611241603,12, 2, -3, 0, 5, 0, -1, 1
1503611241617,26, 11, 5, 6, 9, 1, -1, 4
1503611241625,-6, -3, 0, 0, -2, 1, 0, 2
1503611241632,18, -1, 1, 1, 1, 0, -1, 8
1503611241648,12, 8, 11, 3, 0, 3, 4, 6
1503611241655,9, 5, -3, -4, -1, 1, 9, 3
1503611241670,7, 6, 3, 3, 2, 3, 6, 2
1503611241677,-5, -4, 2, -1, -2, -4, -4, -5
1503611241685,-11, -13, -5, -2, -1, -1, -5, -4
1503611241699,12, 6, -2, -3, -4, -3, 2, 17
1503611241707,1, -8, -3, -1, -2, -6, -2, 5
1503611241716,-10, -3, 0, 6, 13, -1, -6, -5
1503611241730,2, -2, -6, -2, -5, -4, 2, 3
1503611241737,4, 4, 4, -3, -5, -1, -2, -2
1503611241745,-7, -2, -3, 3, 2, 2, 0, -11
1503611241759,2, -5, -7, -4, -5, 0, -3, -1
1503611241767,18, 7, 0, -2, -3, -1, -2, 4
1503611241776,-4, -3, -1, 0, -1, 1, -3, -3
1503611241790,-1, -1, 0, 2, 4, 0, -1, -3
1503611241797,2, 1, -1, -2, -2, -1, -1, -7
1503611241805,-6, -6, -1, -3, -2, 0, -2, -1
1503611241819,-13, -6, -2, 2, -1, -2, 0, -1
1503611241827,-18, -6, -5, -4, -3, -2, -5, -9
1503611241835,3, -3, 0, -1, 0, 4, 8, 9
1503611241850,-10, -3, -1, 0, -1, -1, -2, -6
1503611241856,2, 2, 5, 2, -3, -3, -4, 0
1503611241857,-2, 3, 0, -3, -6, -3, -3, -3
1503611241865,9, 0, -6, -11, -2, 0, 0, 4
1503611241879,10, 3, 0, -1, 2, 1, -2, 0
1503611241887,1, 5, 4, 3, 1, 0, 1, 3
1503611241895,-5, -2, -4, -2, -4, -2, -3, -9
1503611241910,8, 0, 0, 0, -3, -2, -1, 1
1503611241917,-5, -5, -3, -1, -2, 0, -1, -13
1503611241925,2, 3, 4, 1, 4, 3, 1, 1
1503611241941,4, 0, -1, 1, 1, 2, 3, 13
1503611241942,-2, -3, -2, 1, 2, -2, -2, -4
1503611241947,13, 0, -1, -1, -3, -1, 0, -2
1503611241955,2, 3, -1, 0, 0, 0, 1, 3
1503611241970,-1, -1, 0, 0, 1, 6, 1, -1
1503611241978,12, 3, 0, -2, -7, 3, 1, 4
1503611241985,5, 0, 0, 0, -1, 12, 5, 4
1503611241999,-7, -1, 1, 0, 1, 1, -1, -2
1503611242008,2, 1, 1, -1, -1, -5, -4, 2
1503611242015,-1, -3, 0, 0, -4, -5, -6, -4
1503611242030,-15, -7, -5, -2, 0, -4, -2, -2
1503611242037,-1, -11, -5, -3, 0, -4, -2, 0
1503611242045,-5, -8, -6, 0, -2, -2, -3, -2
1503611242059,9, 4, 2, -5, -2, -2, 0, 0
1503611242067,8, 12, 2, -2, -4, -7, -3, -3
1503611242076,25, 6, -1, -1, 3, 3, 5, 12
1503611242090,-44, -52, -22, -3, -3, -4, -1, -3
1503611242096,-8, -4, 3, 1, 1, -1, 0, -4
1503611242105,18, 3, 5, 2, 4, 2, 2, 4
1503611242119,-11, -2, -6, -2, -1, -2, -2, 3
1503611242127,-19, 7, 2, -3, -5, -8, -7, -16
1503611242135,-10, 8, 4, 0, 2, -2, -3, -6
1503611242150,11, -7, 0, 1, 1, 4, 3, 9
1503611242157,-18, -4, -7, -1, -3, -1, -3, -14
1503611242165,14, 1, 5, 1, -1, -1, 2, 14
1503611242181,1, -14, -6, -2, -2, -3, -3, 16
1503611242187,-4, 6, 0, -1, -2, 0, -1, 7
1503611242195,-3, 5, -2, 0, 0, 0, 0, -8
1503611242210,-5, -5, -2, -2, 3, -2, -3, -11
1503611242217,0, -3, -2, -1, -2, -1, -3, -2
1503611242225,6, 15, 2, 1, 1, -1, 1, -6
1503611242239,3, 7, 8, 6, 1, 1, -2, -4
1503611242247,4, 13, 5, -2, -10, -4, 0, 1
1503611242255,-10, -15, -13, -19, -3, -3, -4, -4
1503611242270,8, 9, -1, -5, -4, -3, -3, -1
1503611242278,7, 9, 8, 7, -4, -1, 0, 1
1503611242285,-14, -6, -8, -5, 3, 2, 1, -3
1503611242299,1, 2, 4, 5, 3, 0, 2, 1
1503611242308,-12, -1, 4, 2, 0, 1, -2, -8
1503611242315,0, -12, -2, 1, 2, 1, 1, 5
1503611242330,-5, -22, -21, -5, 0, -1, 0, 0
1503611242337,-14, -22, -11, -5, -4, -2, -1, -6
1503611242346,9, 4, 5, 6, 2, 2, 1, 6
1503611242359,5, -1, -6, -1, 3, -1, -1, -2
1503611242367,3, 10, 2, 0, -1, -2, -1, -2
1503611242376,10, 22, 7, 0, -1, -1, 0, 2
1503611242390,-8, -9, 2, 0, -1, -1, 0, -2
1503611242397,0, 1, -4, -3, -2, -2, -3, -2
1503611242405,4, 0, 10, 4, 1, 1, -1, 0
1503611242419,-5, 7, 4, 1, 2, 0, -1, 1
1503611242427,-20, 5, 1, -1, -6, -5, -5, -11
1503611242435,6, -3, 4, 4, -3, 2, 1, 2
1503611242450,7, -7, -2, 0, 1, -1, 1, 1
1503611242457,3, -19, -16, -7, -3, -2, -3, -3
1503611242465,5, 16, 5, -2, -2, 1, 0, 0
1503611242479,3, 4, 5, 13, 13, 1, 1, -1
1503611242487,11, 0, -2, -2, 9, 2, 3, 2
1503611242495,-1, 17, -2, -1, -5, -1, -2, -2
1503611242517,-13, -2, -2, -2, -3, -2, -2, -11
1503611242532,1, -4, -6, -8, -5, -2, -2, 0
1503611242539,-9, -4, 0, 2, 4, -1, -2, -4
1503611242548,2, -10, 0, -3, 0, 0, -2, 0
1503611242555,-4, -14, -4, 3, 0, -1, 1, 7
1503611242570,9, -16, -3, 2, 2, -2, -2, -1
1503611242583,4, -19, -10, -11, -9, -7, -5, -2
1503611242592,2, 17, 2, 1, -1, -3, 0, -6
1503611242599,0, -9, 1, -7, -2, 3, 2, 2
1503611242607,0, -1, -6, 0, 10, 1, -3, -1
1503611242622,4, 23, 9, 6, -1, -1, 2, 6
1503611242630,13, 2, -2, 1, -3, -1, -4, 5
1503611242636,9, 19, 1, -5, -4, 1, 0, 6
1503611242653,4, -8, 1, 8, -2, 2, 3, 2
1503611242659,4, 4, 1, 0, -4, 2, -1, -1
1503611242667,-13, -7, -6, -16, -2, 0, 2, 0
1503611242682,0, 5, 5, 3, -4, 0, 1, -5
1503611242690,-3, 4, 8, 3, -5, -4, -5, -5
1503611242697,16, 5, 0, -2, 1, 0, 0, 4
1503611242713,0, 12, 4, 4, -2, -1, -3, -5
1503611242719,-5, -4, 3, -7, -6, 2, 2, -1
1503611242727,-18, -8, 1, 4, 13, 0, 2, -1
1503611242743,-12, -11, -2, 1, 13, 4, 1, -6
1503611242750,-8, -22, -17, -10, -2, 0, 3, 12
1503611242756,-12, 4, -3, -3, 1, -6, -4, -5
1503611242772,-1, -16, -4, -1, -5, -3, 0, -5
1503611242780,3, -4, 2, 1, -1, -2, -1, 0
1503611242788,6, 13, 0, -3, -6, -6, -6, -3
1503611242802,-10, 11, 1, -12, 0, 1, 9, -32
1503611242810,-1, 1, 2, 11, -1, 3, 4, 6
1503611242817,-3, 0, -2, 15, -5, -3, -7, 0
1503611242832,0, 0, -2, -7, -8, 0, -2, 1
1503611242839,0, -1, -2, -8, 0, 0, -2, 6
1503611242847,6, 7, 0, -12, -2, -1, -4, -5
1503611242862,5, 23, 13, 4, 0, -1, -2, -8
1503611242870,11, 7, 1, -27, -2, -1, -2, 0
1503611242879,-5, -10, -4, -4, -4, -4, -4, 1
1503611242892,-7, -3, 0, 35, 0, -2, -1, -2
1503611242899,1, -8, -2, 13, 0, 3, -3, 9
1503611242907,8, -4, -2, -2, -1, -1, 0, 1
1503611242923,-7, -7, 2, -5, 2, -3, -5, 2
1503611242930,1, -3, 2, -5, 3, 2, -2, 2
1503611242937,-6, 2, -2, -3, 0, -2, -3, 7
1503611242953,-15, 4, 2, 1, -3, -1, -3, -8
1503611242959,4, -9, -7, -1, -4, -1, 0, 6
1503611242967,6, 7, 1, -4, -6, 0, 0, 0
1503611242982,3, -3, -4, -4, -4, 0, 0, 6
1503611242990,4, 1, -2, -1, 1, -2, 1, 2
1503611242997,0, -12, 0, -1, 4, -2, -3, -7
1503611243013,0, 2, -2, 1, 0, -2, -1, -3
1503611243019,-4, -4, 5, 5, 0, 1, -3, -5
1503611243028,-8, 2, 1, -4, -2, -2, 0, -8
1503611243043,8, -1, -5, -14, -5, -3, 1, 3
1503611243050,19, 1, 2, 3, 0, 3, 10, 18
1503611243065,-33, -24, -14, -2, -4, -5, -7, -34
1503611243072,-6, -5, -2, 0, 0, -6, -2, -13
1503611243082,5, 4, 1, 4, -1, 0, 5, 8
1503611243087,0, 0, -3, -1, 1, 3, -7, 3
1503611243103,2, 6, 1, 3, 4, 2, -1, 10
1503611243110,2, -7, -5, -4, -2, 0, -2, 0
1503611243125,4, 20, 8, 7, -1, 0, -3, 4
1503611243132,5, 1, 2, 5, -3, -4, -1, -1
1503611243140,-14, -6, -8, -11, -6, -2, -4, -13
1503611243148,-1, 15, 1, -1, 0, -1, 1, 2
1503611243163,7, -6, 1, -3, 2, 0, 1, 9
1503611243170,-15, -16, -7, 0, 6, -2, -2, -19
1503611243186,-12, -13, -7, -3, 1, 0, 3, -6
1503611243192,-4, -10, -6, -5, -2, 3, -3, 2
1503611243245,3, 7, 9, 2, 1, 1, 0, 6
1503611243252,-7, 31, 7, 2, -1, -4, -2, -7
1503611243260,1, -8, 1, 2, 1, 0, 3, 11
1503611243266,-27, -8, -1, -3, -2, 0, 1, -15
1503611243268,11, -3, -2, -3, 3, -1, -2, 0
1503611243283,28, 4, 2, 2, 0, 0, 3, 6
1503611243290,-6, -1, 0, 0, 1, -1, 1, 2
1503611243305,-13, -8, -6, 2, -2, -2, 0, -8
1503611243312,4, -25, -8, -2, 3, 0, -1, 8
1503611243320,9, 1, 2, 0, 12, 6, 4, 12
1503611243327,-5, 1, 12, -13, -9, 0, 0, 4
1503611243349,-4, 6, 2, 6, -5, 0, 3, -2
1503611243372,6, 3, -8, -2, -1, 0, 4, 2
1503611243394,18, 9, -4, -2, -2, -1, -1, 2
1503611243395,14, 4, 4, 8, 0, -3, 0, 11
1503611243397,-14, -12, -8, -4, -3, -6, -8, -8
1503611243402,-5, 10, 9, -2, -2, -2, -6, -4
1503611243403,-5, -8, -2, -8, -9, -3, -2, -3
1503611243410,-31, -3, -1, -2, -4, -1, -11, -41
1503611243426,-4, -7, -10, -7, -12, -1, -5, -4
1503611243432,3, 0, 2, 9, 12, 4, -2, 10
1503611243433,6, 9, 7, -2, -5, 2, 3, 14
1503611243440,-2, 4, 1, -2, 5, -4, -3, 2
1503611243448,12, -5, -8, 5, 6, 2, 1, 14
1503611243463,4, 5, 2, 5, 6, 3, 3, 9
1503611243470,6, -12, -16, -1, -3, -4, -2, 3
1503611243485,16, 16, 3, 5, 1, 1, 1, -1
1503611243492,-13, -20, -8, -9, -3, -5, -4, -7
1503611243500,-14, -16, -10, -5, -3, -4, -2, -23
1503611243516,0, -5, 6, 13, 3, -2, -3, 11
1503611243523,-12, 9, 15, 5, 2, 0, 1, 0
1503611243530,4, 5, 0, 3, 2, -4, -6, -7
1503611243545,7, 6, 0, 2, -4, 0, -4, 3
1503611243552,14, 4, -1, -3, -3, 2, 3, 1
1503611243560,5, 2, 0, -5, -15, 1, 1, 10
1503611243575,-3, -2, -8, 3, 7, 1, 2, 8
1503611243584,-30, -9, 2, -1, 2, -2, -4, -6
1503611243590,-14, 11, 3, -8, -2, 2, 1, -6
1503611243605,10, -3, 7, 1, 10, -1, 4, 2
1503611243612,-33, -15, -5, -12, -5, -2, -1, -13
1503611243620,-11, -8, 2, 2, -6, 1, -7, -7
1503611243635,13, 9, 1, -1, -6, 4, 1, 24
1503611243643,9, -1, -6, -3, -1, 1, 0, 3
1503611243650,7, 4, -1, 3, 2, -1, 1, -2
1503611243665,21, -7, -5, 2, 2, -1, 8, 12
1503611243672,-14, -5, 4, 3, 8, -2, 0, -6
1503611243680,-11, -4, -11, -11, -5, -2, -2, -8
1503611243695,15, 18, 15, -1, 3, -3, -3, 3
1503611243703,5, 10, 2, 4, 2, -1, -1, -7
1503611243710,9, -7, -12, 30, -7, 3, 1, 1
1503611243726,0, -14, -3, 14, 8, -1, 0, -10
1503611243732,-5, -17, -6, -16, -10, -10, -13, -33
1503611243740,-4, -10, -3, -6, 0, -3, 1, 5
1503611243755,-8, 10, -3, -14, -10, 5, 0, -3
1503611243763,20, 8, 1, -7, -7, 0, -4, 6
1503611243770,4, -14, -3, -1, 3, -1, 3, 7
1503611243785,-19, 0, -9, -4, 6, -12, 0, -9
1503611243793,13, 27, 11, 5, 3, 2, 4, 12
1503611243808,1, 9, 0, -1, -3, 4, 0, 4
1503611243815,1, -4, -14, -6, -5, 2, 0, 1
1503611243816,0, 3, 3, 5, 10, 5, 0, -5
1503611243830,6, -11, -21, -12, 5, -1, -2, 7
1503611243831,-4, 10, 11, -3, -3, 0, 2, -2
1503611243845,-6, 6, 1, 1, -5, -1, -7, -17
1503611243852,11, -9, -13, -13, -8, 2, 6, 9
1503611243860,-1, -10, -4, 3, -2, 1, 0, 5
1503611243875,-15, 10, 10, 7, -4, -2, 1, -6
1503611243884,15, -1, -4, -8, -4, 2, 1, 8
1503611243890,14, 33, 9, 11, 1, -3, -3, -3
1503611243905,-17, -5, -3, 14, 1, 0, 2, 0
1503611243912,14, 7, 10, 9, 18, -2, 4, 21
1503611243920,25, 9, 7, -11, 1, 0, -2, 2
1503611243935,-15, -21, -12, -4, 6, -5, -5, -12
1503611243943,1, -1, 8, -2, -3, 3, -2, 0
1503611243952,12, -11, -9, -3, 1, 1, -2, 3
1503611243965,-10, -6, -1, 9, 8, 0, -1, -9
1503611243972,7, 12, 6, -5, -3, -5, -6, 2
1503611243980,-10, 16, 13, -8, -5, 1, -3, -6
1503611243995,-24, -20, -5, -9, -3, -4, -6, -16
1503611244004,12, 11, 13, 1, 1, -2, 6, 23
1503611244010,-17, -10, -14, -8, -1, -4, -4, -12
1503611244025,3, 13, 6, 2, 3, 1, 0, -1
1503611244032,-18, -19, -8, 4, -4, -4, 2, -9
1503611244040,1, -2, 4, -1, -2, -1, 0, -2
1503611244056,-5, -14, -9, -9, -10, -6, -4, -2
1503611244063,-13, 3, 2, -3, -10, 0, 0, -7
1503611244070,5, 0, -1, -8, -4, 5, 1, 9
1503611244086,-14, 14, 8, 6, 5, -5, -5, -11
1503611244092,3, 3, -2, -19, -4, 6, -2, -4
1503611244100,-2, -19, -14, -20, -11, 1, 0, 8
1503611244115,12, 6, 3, 5, 8, 3, 2, 16
1503611244123,12, -5, -13, -4, -6, -4, 1, 8
1503611244130,5, 14, 16, 13, 3, 3, 5, 4
1503611244145,-18, 22, 0, 10, -2, -3, -6, -34
1503611244153,0, -20, -14, -8, -8, -2, 5, -10
1503611244161,13, 0, -6, -3, -2, 1, 1, 9
1503611244175,15, 24, 10, 10, -1, 0, 5, 11
1503611244183,-16, -11, 1, 11, 3, 2, 4, 4
1503611244190,16, -13, -10, 3, -1, -3, -8, 4
1503611244205,6, 11, 12, -8, 1, 2, 2, 17
1503611244212,-14, 2, -6, 2, -3, -5, -4, -13
1503611244221,-22, 7, 8, 10, 2, -3, -2, -22
1503611244235,-10, -13, -9, -6, -4, -6, 0, -1
1503611244243,-8, -14, -6, 0, -5, -1, 0, -7
1503611244250,-10, -18, -4, 4, 4, -1, 1, -1
1503611244265,20, 22, 6, -2, 2, -1, -3, -2
1503611244272,6, 4, 2, -5, 4, 2, 1, 0
1503611244281,-3, 3, -6, -8, 0, -7, -10, -29
1503611244299,6, 8, 2, -3, -4, 0, 2, 8
1503611244303,-4, -23, -7, -27, 0, -4, -4, -1
1503611244310,4, 0, 3, -19, 0, 1, 5, 0
1503611244327,4, -21, -4, 11, 0, 0, 10, 13
1503611244332,-12, 4, 1, 5, -6, -6, -14, -12
1503611244340,-8, 29, 3, 12, -1, 5, 9, 4
1503611244355,-8, 1, 4, 7, -1, 5, 1, -10
1503611244363,-12, -9, -1, 8, 3, -4, -7, -3
1503611244370,-9, -2, -6, 11, 8, -2, -2, -7
1503611244387,-15, -21, -8, 0, -3, -5, -6, -5
1503611244393,-2, -21, -11, -4, -7, -4, -7, -9
1503611244400,11, -14, -2, 6, 10, 3, -1, 7
1503611244415,-2, -4, 1, 0, 1, 3, 1, 2
1503611244423,-2, -7, -5, -3, 20, -1, -3, -5
1503611244430,12, 7, 0, 1, -2, 0, 3, 6
1503611244445,4, -9, -5, 3, -13, 2, 0, 4
1503611244454,-24, -8, -9, -9, -7, -7, -9, -35
1503611244467,0, 11, 3, 7, -8, 3, 2, -3
1503611244475,-4, -2, 4, 3, 0, 1, 0, -8
1503611244483,23, -14, -4, -5, -1, 2, 5, 9
1503611244497,-2, -15, -8, -6, -1, -6, -11, -1
1503611244505,7, 13, 5, -5, -1, -7, -7, 2
1503611244512,24, 13, 0, -4, -4, -2, 2, 11
1503611244528,-13, -18, -5, -7, -8, 3, 1, 0
1503611244535,8, 9, 5, 5, 0, 2, 4, 0
1503611244543,10, 9, 6, 6, 4, 0, 3, 19
1503611244558,6, -10, -2, 2, 4, 0, 5, 8
1503611244565,-10, 6, -1, -5, -5, -4, -6, -8
1503611244572,7, 10, -1, -1, -2, 2, -1, 13
1503611244588,17, -3, -2, -7, 1, 3, 1, 9
1503611244596,-10, 14, 6, -4, -1, -2, 1, -9
1503611244603,0, -3, -4, -1, 6, -1, 2, 0
1503611244617,-9, -8, -1, 34, -3, 1, 3, 9
1503611244625,-6, -5, 0, 7, -1, -1, 2, 4
1503611244632,-2, -8, -1, -14, -2, -1, -4, -7
1503611244647,10, 29, 6, -5, -2, 6, 0, 1
1503611244655,-15, 20, 13, -15, 1, 0, -2, 1
1503611244663,6, -12, -5, -13, -3, -2, 4, 1
1503611244677,3, -12, -2, -2, 1, 0, 6, 22
1503611244685,-13, -4, -4, -6, -3, -1, -3, -15
1503611244693,8, -7, -3, 2, 3, 0, 4, 12
1503611244707,8, 3, 2, 0, 1, -7, -1, 7
1503611244715,-2, 4, -1, 3, 7, 1, -4, -3
1503611244723,-13, -3, 3, 2, -6, 0, -4, -16
1503611244737,-2, 2, 0, -7, -5, -2, -3, -7
1503611244745,4, 12, -5, -10, -9, -4, -4, -8
1503611244752,-21, -9, -8, -4, -18, -3, -4, -19
1503611244768,3, 1, -1, 1, -8, 0, 0, 4
1503611244775,9, 0, -2, 0, 11, 2, 2, 0
1503611244783,16, 3, -1, -1, 9, -1, 3, 11
1503611244797,11, -2, -3, -5, 9, -1, -1, 9
1503611244805,-2, -13, -10, 0, 5, -2, -2, 3
1503611244812,7, -1, -2, -2, -8, -7, -2, 0
1503611244827,-3, 0, 3, 10, 0, -2, -1, 2
1503611244835,-3, -3, -6, -3, 1, 2, -2, -5
1503611244843,-13, -8, -1, -5, -3, 9, 1, -2
1503611244857,-2, 9, -1, -3, -12, -3, 0, -8
1503611244866,-10, -4, 4, 3, 2, -7, -4, -5
1503611244872,7, 11, 12, -16, -13, -5, -3, 11
1503611244890,-3, -4, -6, 3, -24, -8, -3, -9
1503611244895,-4, -10, -1, 2, -4, -3, -2, -2
1503611244903,9, 0, 4, 14, 6, 0, 16, 1
1503611244917,18, -3, -11, 3, 2, -4, -2, 4
1503611244925,7, -1, -2, -7, -9, -2, -11, -4
1503611244932,-9, -8, -1, 3, 4, 8, -4, 0
1503611244947,-17, -7, -9, -12, 7, 6, -1, -7
1503611244957,-10, -13, -5, -3, 7, -2, 2, -11
1503611244963,-5, -10, -4, -5, -1, -2, 3, 1
1503611244977,-6, 5, -1, -8, 8, -11, 1, -3
1503611244985,5, 12, 9, 6, -14, 1, -3, 0
1503611244993,7, 5, 3, 12, 5, 14, 5, 8
1503611245007,4, -2, -7, -4, 5, 6, -4, 2
1503611245017,-10, 5, 7, -6, 3, 2, -6, -10
1503611245026,-5, 3, 8, -13, 6, 0, -1, 0
1503611245037,7, -1, 4, -1, -10, 0, 3, 5
1503611245045,-19, 2, -1, 8, 1, -6, 0, -5
1503611245052,1, 3, 0, 10, 1, -3, -3, 1
1503611245067,-8, -17, -11, 11, -1, -4, -5, 0
1503611245082,-15, 1, -4, 10, -27, -5, 0, -5
1503611245083,-10, 0, -2, -1, -6, -1, -2, -8
1503611245097,9, 22, -1, 2, -16, 1, -2, -5
1503611245098,2, -11, -5, 5, -4, 5, -1, -2
1503611245105,14, -3, 1, 2, 3, 4, 1, 9
1503611245112,6, 18, 2, -9, -1, -1, 1, 4
1503611245128,-11, -20, -9, -2, 11, -3, -2, -6
1503611245136,0, 12, 14, 2, 11, -2, -2, 1
1503611245143,12, 27, 10, -2, 4, -1, 2, 1
1503611245158,-2, -13, -6, -9, 4, 1, 4, 3
1503611245166,-35, -18, -4, -9, -3, -8, -5, -13
1503611245172,-9, -29, -6, -2, 4, 3, -3, -3
1503611245187,4, -29, -10, 1, -1, -2, -9, -12
1503611245195,1, -11, -10, 1, -1, -3, -4, -20
1503611245203,25, 52, 25, 9, -2, -2, -10, 1
1503611245217,0, 7, 2, -5, 8, 1, 3, 11
1503611245226,0, 4, 0, -2, 4, 1, 5, 1
1503611245232,20, 16, 2, 1, -8, -5, -4, 5
1503611245247,-26, -16, -3, -8, 4, 3, 3, 7
1503611245255,7, -3, -8, -1, 1, 0, 0, 1
1503611245263,38, 33, 9, 10, -1, 3, 2, 11
1503611245277,-21, -13, -2, -1, -3, 0, -12, -5
1503611245285,-7, -10, -2, -1, -17, -9, -1, -1
1503611245295,-13, -8, 0, 1, -1, 3, 3, 2
1503611245308,7, -8, -2, -2, -3, -3, 2, 3
1503611245315,21, 13, 5, 8, 0, -4, 0, 2
1503611245325,18, 6, 1, 4, 8, 2, 4, 4
1503611245337,-12, -10, -11, -11, 14, 2, -3, -5
1503611245345,-26, -5, 3, -7, 3, 6, 14, -11
1503611245352,-25, -11, -5, -3, -13, -8, -10, -13
1503611245367,-24, -18, -5, -6, -2, 1, 12, -27
1503611245374,-3, -1, 2, 0, 5, 0, 0, -5
1503611245390,6, -12, -10, -6, -7, -4, -14, -3
1503611245397,15, 12, 7, -6, -4, 0, 1, 2
1503611245405,1, 3, 4, 13, 13, 3, -1, 7
1503611245419,19, 1, -3, 12, 10, 9, 16, 13
1503611245429,8, 3, -2, -3, 5, -3, -1, 7
1503611245435,-14, 3, 2, -13, -8, -2, -3, -15
1503611245450,-5, 0, -3, 0, -1, 0, -5, 6
1503611245462,0, 3, 1, -2, -8, -3, -4, 5
1503611245465,-3, -7, 6, 3, -4, -4, 2, 6
1503611245479,15, -8, -8, -12, -7, -1, -2, 8
1503611245487,8, 26, 7, -4, -9, -1, 0, 3
1503611245496,1, 0, -2, -2, 1, 2, 8, 4
1503611245509,-3, -15, -14, -2, 0, -3, 0, -6
1503611245517,-1, 23, 8, 6, 1, -2, -1, 0
1503611245528,31, 6, -20, -7, 0, -3, -11, 29
1503611245539,-7, -16, -11, -2, -6, -7, -3, -9
1503611245547,-11, -27, 1, -6, -6, -1, -2, -1
1503611245554,-13, 12, 10, 1, -1, 1, -11, 4
1503611245569,-30, -26, -13, -4, -4, -5, -6, -34
1503611245577,39, 22, 3, 5, 0, -3, 4, -4
1503611245585,13, 6, 3, -1, -3, 0, -3, 2
1503611245599,0, -4, -1, 3, -4, -1, 1, 1
1503611245607,-3, 12, 2, 20, 1, -1, -3, -3
1503611245614,3, 7, 2, 6, -2, -3, 1, 2
1503611245615,-5, -8, 2, -8, 2, -1, 0, 1
1503611245630,-12, -4, 5, -21, -5, 3, 4, 0
1503611245637,-9, -9, -4, -1, 5, 0, 0, -2
1503611245645,34, 12, 1, 1, -1, 0, 3, 11
1503611245660,-15, -10, -7, 2, -2, -3, -2, -4
1503611245667,-3, 3, 3, 16, 2, -2, 2, 4
1503611245674,0, -6, -1, -4, -18, -3, -2, -2
1503611245689,6, 0, 1, 9, 21, 9, 2, -4
1503611245697,-2, -3, 4, 9, 6, -1, -2, 1
1503611245705,-3, 11, 1, -1, -4, 2, 2, -3
1503611245719,-2, -6, -3, -3, 0, 0, -1, -6
1503611245728,14, 10, 0, -11, 0, -4, -7, -11
1503611245735,-1, 4, 3, 4, -5, -1, 1, 3
1503611245749,-1, -6, -2, 0, -1, 2, 1, 7
1503611245757,-1, -10, -6, 4, 6, 5, 0, 4
1503611245765,6, 1, -1, -2, -5, -4, -2, 2
1503611245779,-14, -15, -3, 1, 2, -3, -2, -2
1503611245787,-1, 5, 13, 8, -3, -4, -1, -1
1503611245795,-1, 8, 0, 3, 5, -1, 1, -8
1503611245809,8, 10, -3, -2, 4, -3, -1, 1
1503611245810,-8, -1, -3, -8, 0, -1, 0, -1
1503611245818,-1, 2, 2, -4, -5, -5, -2, -4
1503611245829,-13, -7, -9, -6, 0, 4, 0, -5
1503611245839,10, 21, 0, 0, -5, 2, -1, 5
1503611245847,-30, 1, -6, -8, -1, 0, -9, -11
1503611245855,4, 0, -5, -4, 0, -4, -4, -3
1503611245869,-5, -8, 0, -5, -4, -1, 2, 2
1503611245877,-2, -7, -3, -10, -7, -4, -1, 0
1503611245885,5, 9, 16, 5, -2, 1, 2, 4
1503611245899,71, -8, -3, 5, 1, -3, -4, -2
1503611245907,29, -1, 7, 9, 1, 3, 0, 7
1503611245914,-55, -11, -2, -6, -3, 2, -1, -1
1503611245930,-19, -5, -1, -3, -1, 3, 2, 3
1503611245937,-13, 5, 5, -4, 1, -1, -1, -1
1503611245945,-2, 0, -7, -18, -2, -7, 0, 1
1503611245960,8, 2, -2, -16, 7, 0, -4, 0
1503611245961,-7, -8, -14, -8, 6, 2, 1, 0
1503611245967,-3, -18, -11, -2, -19, -4, 0, -3
1503611245974,2, 11, 10, 9, 0, -2, 0, -5
1503611245990,0, -9, -8, -2, 3, -6, -6, -6
1503611245998,5, -5, -2, -6, 4, -3, 1, -1
1503611246005,3, 5, -2, -1, -10, -1, -1, -1
1503611246019,-10, -2, -2, 3, -2, 1, -4, -8
1503611246029,0, 1, 1, 5, 0, -2, 2, -1
1503611246035,11, -3, 0, 6, 4, -1, 0, 3
1503611246050,-11, 6, 8, 12, 18, 3, -3, 1
1503611246057,-17, -4, -1, 6, 21, 13, -1, 4
1503611246066,-10, -18, -18, 2, 7, 1, 1, -5
1503611246079,4, 15, 4, 1, -8, -8, -1, -4
1503611246087,3, 10, -4, -6, -2, 1, -1, -1
1503611246097,13, 28, 7, 1, -8, -1, -1, 6
1503611246109,5, -1, 0, -3, -15, -7, -6, -16
1503611246117,9, -8, 5, -4, -7, -2, 2, 0
1503611246125,5, -5, -9, -6, -9, -2, 1, 6
1503611246140,10, -19, -14, 3, 0, 6, 3, 16
1503611246147,-27, -6, 1, 17, 11, 0, -6, -15
1503611246148,-18, 9, 14, -4, -9, 3, 4, -2
1503611246154,-5, 3, 8, 13, 2, 1, 2, 3
1503611246170,2, 3, 3, -4, 25, 2, 1, 0
1503611246177,-9, -10, -5, -1, -6, 0, 3, -2
1503611246185,-3, -4, -2, 2, -4, -4, -5, -1
1503611246200,0, 20, 2, -4, 9, 0, -2, -4
1503611246208,3, 3, 12, 3, 3, -3, 1, -8
1503611246214,-19, -19, -9, -1, -4, 3, 16, -7
1503611246231,-8, -11, -13, -2, -6, -3, -12, -3
1503611246238,0, 4, 3, -12, -24, -2, 1, -2
1503611246245,-1, -3, -1, 0, 18, 3, 8, -2
1503611246259,7, -24, -9, 2, -6, -6, -4, 8
1503611246260,6, 8, -1, -2, 1, -6, -9, -1
1503611246268,-4, 2, 10, 1, -9, -5, -12, -2
1503611246275,9, -19, -14, -7, 0, -3, -10, -4
1503611246289,1, 1, -3, 0, -5, 4, 13, 6
1503611246298,-13, -2, -3, -11, 3, -3, -7, -6
1503611246312,-2, -3, -6, -4, -16, -5, 1, -7
1503611246319,9, 7, 4, 3, 35, 9, 8, 9
1503611246320,-7, -1, 3, 1, 6, 3, -3, -4
1503611246334,3, -3, -1, -13, -8, 1, 3, 7
1503611246341,-7, -13, -1, -2, -2, -4, -6, -6
1503611246349,10, -10, -9, 11, 3, 1, -19, 29
1503611246365,-2, -7, -5, -2, 2, 0, 2, -10
1503611246372,0, 0, -3, -6, 6, -2, 2, -4
1503611246386,1, -6, -3, -7, -6, -1, -3, 8
1503611246388,-2, -1, 3, 5, 1, 0, 5, 4
1503611246401,-10, 4, 0, 2, -2, -5, 1, -13
1503611246409,-10, -7, 3, -2, 3, 5, 1, -6
1503611246417,10, 5, 5, 5, 2, 0, 0, 5
1503611246432,-7, -5, -7, -11, 2, -3, -2, -7
1503611246440,3, 0, 0, -4, 4, -1, 1, 6
1503611246447,-2, -13, -4, -3, 9, -1, 0, 6
1503611246448,2, 12, 0, 1, -4, -3, 0, -4
1503611246464,1, 7, 7, 5, -3, 1, 0, 6
1503611246470,-4, -18, -7, -4, -2, 2, -2, -3
1503611246477,-6, 2, 4, 3, 2, -1, -5, -4
1503611246492,-2, 2, -4, 14, 2, -4, 2, -4
1503611246499,-1, 11, 2, 9, 12, 3, 8, -1
1503611246507,6, -2, -8, -2, -3, 1, 4, -1
1503611246521,22, 6, 1, -9, -3, 1, 2, 10
1503611246531,-11, 10, 6, 9, 4, 0, 0, -9
1503611246537,-9, 0, -5, -17, -8, 1, 4, 7
1503611246552,8, 8, 9, -3, 0, -2, -8, -5
1503611246559,17, -1, -10, -1, -6, -1, -3, 7
1503611246567,-12, -19, -5, -16, -2, -1, 3, -2
1503611246581,-18, -4, 2, 12, 3, -2, 3, -5
1503611246589,41, 4, -2, 2, 4, 4, 5, 9
1503611246599,10, -3, -3, -1, -7, -2, -6, -4
1503611246612,-6, 7, 9, 3, -4, 3, -2, 8
1503611246619,-12, -9, -2, -1, -1, -2, -1, -2
1503611246628,-4, 3, 1, -2, 11, -3, 0, -2
1503611246641,-6, 27, 10, 2, -2, -1, -6, -6
1503611246649,8, 7, -1, 0, -6, -5, -8, -7
1503611246657,8, 0, -2, -3, 0, -3, 4, 2
1503611246672,4, 8, 8, 9, 4, 3, 13, -10
1503611246673,0, 2, -3, 0, -2, 0, -1, 7
1503611246680,0, -13, -3, 1, 0, -1, 0, 8
1503611246688,-19, -11, -3, 3, -2, 1, -1, -14
1503611246701,-4, -13, -4, 2, 1, -1, 0, -4
1503611246709,3, 6, 0, 3, 3, -1, -1, -16
1503611246717,-4, -15, -5, -6, -3, -6, -1, -1
1503611246732,-5, -2, -4, -5, -3, -2, -5, -7
1503611246740,-8, 12, 6, 3, 2, 1, -1, -21
1503611246748,-4, 0, 2, 0, -2, -3, -2, 9
1503611246762,-17, -21, -3, -3, 1, 1, -3, 0
1503611246770,1, 5, 7, 0, 3, 2, 3, 4
1503611246777,0, 7, 0, 1, -1, 0, 1, -6
1503611246792,-8, -18, -12, -4, -3, -2, -1, 1
1503611246800,-2, 3, 0, 4, -2, 0, -1, -4
1503611246808,3, -17, -8, -2, -2, -1, -6, 1
1503611246821,-38, -7, 1, 1, 4, 1, -1, -6
1503611246822,20, 0, -11, -13, -9, -4, -8, -11
1503611246829,2, 8, 1, 0, -4, 0, -1, -6
1503611246837,-4, -6, 1, 3, 0, 2, 1, 12
1503611246852,-1, 0, 1, -1, 0, -1, 0, 3
1503611246859,-10, 14, 16, 6, 4, -1, -2, -5
1503611246867,-8, 15, 2, 3, 3, 1, 2, 1
1503611246881,6, -11, -2, 3, 0, -4, 0, 8
1503611246889,-4, -12, -4, 0, 0, 0, -3, -5
1503611246897,-3, 24, 9, 0, -1, 3, 0, -6
1503611246912,17, -12, -9, -10, -4, -2, 1, 11
1503611246919,1, -6, -7, -7, 5, 2, 3, 8
1503611246928,1, 1, 0, 0, -1, -3, 2, -3
1503611246949,-13, -5, -1, 9, 4, -1, -6, -17
1503611246951,-3, 0, -4, -1, 1, 1, -2, -4
1503611246957,10, -3, -2, -1, -7, -1, 1, 9
1503611246972,-5, 1, 3, 4, 1, -1, 1, 1
1503611246979,-6, -37, -14, -8, -5, -4, -2, 0
1503611246987,6, 2, 2, -1, -7, -4, 0, 5
1503611247001,-2, 8, 2, -1, 0, -2, -2, 0
1503611247010,-2, -13, -8, -5, 1, 1, -2, 4
1503611247017,-2, -9, -5, -3, -2, 0, -1, -2
1503611247033,-9, -2, 8, 3, -3, 1, -4, -9
1503611247039,3, 1, -5, 5, 8, -2, -2, 1
1503611247048,-9, 2, 8, 4, 2, 1, -1, -6
1503611247061,-4, 6, 1, -2, -3, 2, 2, -8
1503611247070,11, 10, 0, 4, 2, -3, -1, 2
1503611247077,6, -6, 2, 0, 3, 0, 0, 19
1503611247092,4, -2, -4, -6, 2, 4, 1, 5
1503611247100,-20, 47, 20, 5, -4, -1, 0, -10
1503611247107,-6, 4, 1, -4, -7, -2, 3, 7
1503611247121,3, 0, -4, -12, -2, 1, 5, 2
1503611247129,2, 13, -1, -6, -4, -4, -4, -6
1503611247137,-13, -11, -6, -4, -6, -1, -5, -11
1503611247152,0, 8, 3, 5, 1, 0, 4, -2
1503611247159,16, -9, -2, 3, 6, 0, 1, 5
1503611247168,-5, -7, -4, 3, -1, -2, -3, -1
1503611247181,18, 22, 6, -2, -2, -1, 0, 1
1503611247189,-5, 16, 6, 3, 1, 1, 3, -1
1503611247197,2, -10, -1, -3, -5, 2, -2, 2
1503611247212,-2, -7, -4, -9, -4, 0, 11, -9
1503611247219,-10, -13, -9, -5, -4, -3, -2, -5
1503611247235,-4, -27, -9, -2, 2, -3, -6, -2
1503611247241,9, 4, 1, 2, 2, 0, -2, 5
1503611247249,-5, -11, -5, -3, -1, 0, -4, -1
1503611247264,0, -3, -1, 1, 1, -1, -4, -9
1503611247272,-7, 9, -3, -4, -3, -8, -18, -1
1503611247280,-2, -2, -4, -2, -3, -3, 5, 4
1503611247295,2, 8, 8, 4, 3, 2, 7, 4
1503611247302,0, 5, 0, -2, -3, -2, -3, -7
1503611247310,2, -3, -3, -4, -2, 1, 1, 5
1503611247324,-1, -6, -1, -1, 1, 3, 4, 5
1503611247332,4, -1, -2, 0, -3, -2, 1, 3
1503611247340,-3, -5, -6, -7, -5, -3, -3, 1
1503611247354,1, -7, -1, -6, -7, -2, -1, -2
1503611247361,18, 6, 4, 0, -1, 1, 3, 11
1503611247370,11, 9, 0, 3, 4, -1, 2, 5
1503611247384,-12, -3, -4, -1, 0, -8, -6, -11
1503611247392,1, -2, -1, 1, 0, 0, 0, 4
1503611247400,0, -5, -3, 0, -1, 4, 0, 2
1503611247415,-3, -4, -6, -6, 2, 2, -2, -3
1503611247421,-3, -11, -2, 2, 2, -4, -5, -1
1503611247429,0, 8, 1, 2, 4, -6, -1, -8
1503611247444,-8, -6, -6, -10, 0, -3, -3, -9
1503611247452,3, -4, 4, 1, -1, 1, 0, 8
1503611247459,-1, 2, 3, 3, -5, 3, -1, 0
1503611247475,1, 0, -2, 3, -2, 2, -3, -11
1503611247481,-11, 3, -2, 1, 1, 0, -4, -16
1503611247489,-4, -7, 1, 3, 0, -2, -3, -4
1503611247504,7, -20, -7, 1, -3, -1, 1, 4
1503611247512,0, 5, -2, -2, 1, -1, -2, 0
1503611247519,5, -15, -6, -2, 0, -1, 2, 4
1503611247536,-4, -2, -1, -2, -3, 0, -1, -1
1503611247541,5, 13, -1, 1, 6, 1, -2, 2
1503611247549,-4, -1, -3, 3, 3, -1, 0, 3
1503611247564,2, -1, 2, 2, -2, -2, 3, 13
1503611247572,3, -3, 0, 0, -2, -1, 0, 0
1503611247579,0, 3, 3, 1, -3, 0, 1, -1
1503611247595,-9, 11, 2, -3, -6, -1, -5, -9
1503611247603,-2, 9, 4, 6, 6, 1, -3, -3
1503611247609,1, 6, -1, -2, 0, -1, 1, -2
1503611247624,-10, 9, 5, 0, -4, 2, 4, 4
1503611247632,-2, -12, -5, -2, -3, 0, 0, 10
1503611247646,-4, -10, -1, 0, -2, -2, 0, -8
1503611247654,-3, -7, -3, 0, 4, 1, 1, -4
1503611247670,-9, 3, 2, 1, -3, -4, -7, -10
1503611247671,8, 14, 9, 2, -1, 0, 2, 3
1503611247684,-23, 30, 2, -5, -1, -4, -5, -35
1503611247692,-3, -7, -6, -2, -4, -1, -1, -7
1503611247699,9, 2, 1, -2, 0, 2, 0, 8
1503611247714,0, -13, -2, 2, 0, -2, -2, -6
1503611247721,7, -21, -11, -3, -3, -2, 2, 12
1503611247729,-4, 15, 4, 1, 0, 0, -2, 2
1503611247744,-10, -19, -6, -5, -2, -1, 0, -5
1503611247752,-3, -16, -1, -1, -2, 1, 3, 0
1503611247759,8, -3, -3, 4, -3, 1, 5, 14
1503611247775,-3, 7, 1, 3, 5, 1, 1, 2
1503611247781,6, -22, -2, 0, 1, -1, -5, -1
1503611247789,5, -5, -4, -5, -4, -3, -2, 3
1503611247804,-2, -1, -2, -2, 0, -1, 0, 3
1503611247812,7, -4, -1, -1, -1, 1, 0, 0
1503611247819,-17, 2, 1, 2, -4, -1, -2, -4
1503611247820,4, 6, -1, -4, -1, -3, 0, 2
1503611247834,5, -2, -7, -6, 2, 0, -1, 2
1503611247841,4, 12, 9, 8, 6, 3, 1, 1
1503611247849,-1, -5, -4, 0, -7, -3, -1, 1
1503611247864,-10, -16, -6, -4, -2, -7, -10, -18
1503611247872,6, 11, 10, 1, 3, 1, 0, 7
1503611247880,6, 0, -5, -4, -3, 0, 0, 3
1503611247894,5, -6, -4, -2, -5, -2, -2, 0
1503611247901,2, 22, 4, -1, -4, -2, -1, -3
1503611247910,-3, 11, -7, -4, -2, -2, 0, -4
1503611247924,5, 19, 15, 5, 2, 0, 1, 4
1503611247932,1, -5, -1, -5, 1, -2, -3, -11
1503611247940,-3, -10, -4, 1, -2, 1, -2, 3
1503611247955,4, 2, -6, -6, 2, 2, 1, 3
1503611247961,3, -12, 0, 3, 0, -4, -3, 4
1503611247971,-8, -13, 4, 3, 0, -1, -2, 1
1503611247984,-3, -12, -8, -9, -3, -2, 5, 5
1503611247992,5, 28, 16, 2, 1, 1, -2, 0
1503611248008,-16, 2, -5, -4, -3, 2, 2, -2
1503611248015,-10, -9, 8, 3, -2, 0, 0, -4
1503611248023,-4, -1, 2, 4, 6, 0, 1, -2
1503611248030,-2, -7, -1, 7, 3, 0, 3, 6
1503611248045,-5, -8, -7, -5, -4, -3, -6, -9
1503611248052,-19, 27, 7, 4, 0, -1, -7, -21
1503611248068,-3, -15, -13, -6, -5, 0, 0, 2
1503611248075,0, -1, -1, -1, 0, -6, -5, -9
1503611248082,-3, 6, 0, -3, 0, 1, 0, 0
1503611248089,8, -16, -9, -2, -1, 1, 1, 5
1503611248107,4, -8, -2, -5, -1, 0, -1, 1
1503611248112,12, 2, 4, 4, 1, -1, 0, 4
1503611248128,3, 8, 12, 2, -2, -2, -2, -2
1503611248134,-14, -19, -9, -3, -5, -4, -5, -17
1503611248143,-5, 5, 1, 1, 0, -3, -1, -9
1503611248149,15, -49, -13, -4, 0, -3, 0, 22
1503611248165,26, 4, -2, 3, -1, -4, 1, 9
1503611248173,-20, 4, -2, 0, 1, 2, 3, -2
1503611248187,12, -5, -13, -6, 0, 3, 0, -1
1503611248194,16, 27, 22, 6, 3, 1, 4, 14
1503611248202,-17, -18, -10, -5, -4, 0, 0, 1
1503611248217,-6, 8, 8, 8, 7, 2, -1, -4
1503611248225,5, 9, 6, 5, 0, 1, -1, 5
1503611248232,-7, 4, -9, -8, -6, -3, -6, -8
1503611248248,-2, 7, 5, 2, 6, -1, 0, 1
1503611248254,-15, -14, -13, -9, -4, -4, -4, -12
1503611248263,-30, -32, -7, -5, -5, -1, -6, -16
1503611248277,5, 20, 8, 3, 6, 3, 3, 4
1503611248278,-42, -4, -3, -1, -4, 1, 2, 4
1503611248285,-1, 31, 5, 1, -3, -1, 0, 3
1503611248292,21, 1, 1, 4, 8, 0, 2, 0
1503611248308,22, -1, -2, 1, 0, 1, 3, 9
1503611248315,28, 12, -3, -6, -14, -2, 0, 4
1503611248322,6, 8, 1, -4, -4, -2, 2, -2
1503611248337,-1, -5, -2, -3, -2, -2, -2, 0
1503611248345,-11, -12, 0, 1, -1, -2, -1, 1
1503611248352,-9, 9, 7, 8, 4, 2, -1, -10
1503611248367,10, -16, -8, -2, -6, -1, 4, 5
1503611248368,-9, 8, 5, 3, 0, 0, 0, -10
1503611248376,0, 4, 1, -1, -1, -5, -8, -6
1503611248383,-10, -15, -4, -2, 2, 0, -4, -8
1503611248397,-3, -9, -7, -4, -3, 0, 1, 1
1503611248407,13, 22, 1, -3, -3, -2, -1, 5
1503611248413,6, -10, -6, -1, -4, 1, 2, 5
1503611248428,-3, -12, -2, 1, 0, -3, -2, -5
1503611248434,1, 1, -5, -3, -4, -4, -3, 0
1503611248443,12, 7, 5, 1, 5, 3, 2, 9
1503611248457,8, 32, 8, -3, -1, -1, 0, -3
1503611248465,-3, 0, 1, 1, -3, -5, -4, -2
1503611248473,-6, -16, -11, -9, -5, 2, 0, -5
1503611248487,6, 18, 3, 3, 2, 1, -2, -2
1503611248494,-1, 12, 0, -2, 2, 1, 1, 1
1503611248502,-6, -23, -8, -1, -1, 0, 1, 8
1503611248518,0, -3, 2, 0, -5, -1, -1, 2
1503611248525,-13, -15, -9, -1, 4, -5, -6, -12
1503611248532,3, 5, 6, 5, 1, -1, 0, 4
1503611248548,0, -4, -2, -6, 2, 1, 3, 5
1503611248555,-3, -8, -11, -3, 4, 0, -1, -1
1503611248562,9, 3, 0, 2, -1, 3, 4, 21
1503611248578,-2, -7, -1, 1, -2, 3, 1, 1
1503611248585,-1, 12, 1, -2, -2, -3, -3, -6
1503611248592,-11, -31, -8, -5, -1, 1, 2, 10
1503611248608,12, -2, 1, 2, -1, -3, -2, 0
1503611248615,-14, 28, 11, 0, -1, -3, -6, -23
1503611248630,-3, 6, 1, 10, 6, 5, 2, 0
1503611248637,8, -4, -3, 2, 0, -2, -1, 6
1503611248645,3, -3, -5, -8, -7, -2, 1, 1
1503611248652,-5, -11, -2, -1, 3, 1, -2, -4
1503611248667,4, -2, -2, -2, -4, -1, 1, 5
1503611248675,-6, -6, -5, 0, -1, -3, -3, -4
1503611248683,-19, 21, 1, -1, -3, -2, -9, -40
1503611248697,-6, -9, -6, 1, -1, -4, -3, -5
1503611248705,0, -7, -4, -4, -2, 1, 3, 5
1503611248712,2, 1, 3, 18, 15, -5, -5, -2
1503611248727,2, 0, -5, -11, -4, -1, 0, 3
1503611248728,6, -2, 0, -3, -2, -3, 0, 5
1503611248734,24, 4, -1, -1, -2, 1, 7, 20
1503611248742,-4, 0, 9, 0, -2, 0, -4, -1
1503611248757,15, 21, 6, -3, -2, 1, 2, 8
1503611248767,-3, -13, -3, 1, -2, 0, -1, 0
1503611248772,-5, 3, -4, -5, -3, -1, -1, -6
1503611248787,-7, -15, -1, 6, 3, -2, 0, 4
1503611248794,6, 17, 10, -2, -2, 1, 2, 0
1503611248802,-4, -8, -8, -5, -2, 1, -2, -4
1503611248818,-10, -6, -1, -4, -5, -2, -1, -17
1503611248825,1, 0, -5, -7, -3, -1, 1, -5
1503611248832,-12, -14, -7, 1, -4, -3, -3, -12
1503611248847,1, -4, -5, -6, -3, -2, 0, -4
1503611248854,-6, -3, -2, -2, 2, 1, -2, 3
1503611248862,2, 2, 6, 3, -2, -1, 0, 7
1503611248877,11, 6, 1, -3, -5, -4, -5, -2
1503611248885,2, 19, 8, 3, 1, -2, -6, -5
1503611248892,4, -11, -2, 7, 8, 2, 0, 10
1503611248909,0, -1, -1, -3, -3, -2, -1, 0
1503611248915,-8, -4, -4, -11, -4, -2, 0, 2
1503611248930,-15, -31, -1, 5, 4, 1, 0, -3
1503611248937,1, -12, -7, -2, -3, 0, 1, 5
1503611248952,-10, -2, -4, -4, -1, 0, 4, -10
1503611248953,-17, -16, -8, -6, -5, -2, -2, -16
1503611248967,9, -1, -3, 2, 0, 1, -4, 1
1503611248977,1, -5, 4, 2, 2, 1, -4, -3
1503611248982,5, 6, -4, -3, 0, -4, -2, 5
1503611248997,-7, -6, -2, -4, -4, -3, -3, -9
1503611249005,2, 11, 4, 1, 0, 0, -1, 2
1503611249012,26, 34, 5, 0, -1, 0, 2, 9
1503611249027,-2, -10, -4, 1, -3, -2, 2, 4
1503611249034,2, 0, 1, -7, -4, 1, 3, 10
1503611249049,-6, 0, 1, 10, 1, -2, -2, -4
1503611249057,-16, -25, -7, -1, -1, 1, 3, 4
1503611249065,0, -4, -2, -6, -4, 4, 1, 5
1503611249072,-8, -3, 4, 0, 0, -1, 0, 7
1503611249087,7, 2, -3, -2, 3, -4, -3, 2
1503611249095,-4, -3, 0, 2, -2, -2, -4, -13
1503611249112,-1, 4, -1, -7, -1, -5, -4, -6
1503611249117,-3, 6, 1, -4, -5, -1, -5, -22
1503611249125,0, 9, 0, -1, -3, -2, 1, -6
1503611249139,-4, 10, 3, 0, 1, -1, 4, 3
1503611249149,-4, -5, -2, -2, 0, 1, 1, 4
1503611249154,0, 0, -2, 5, 3, 1, 2, -2
1503611249169,3, -2, -1, -2, 0, -1, 0, -2
1503611249179,-8, -13, -8, -5, -1, 0, -2, -3
1503611249186,-2, -1, 0, 6, 1, 1, -2, -5
1503611249199,8, -4, -3, -1, 2, 0, 1, 7
1503611249207,7, 22, 7, 10, 0, 1, -1, 3
1503611249215,1, 1, 2, 10, 7, 3, 1, 8
1503611249229,-9, -12, -2, -3, -8, -2, -3, -7
1503611249237,0, -8, -7, -10, -9, -1, -3, -2
1503611249245,6, -1, -5, -9, 4, 1, 0, 5
1503611249259,2, -8, -2, 3, 3, -1, 1, 2
1503611249267,1, -5, 2, 1, -11, -5, -1, 0
1503611249274,10, 5, 3, 7, -1, -3, -1, 6
1503611249289,-7, -2, 1, -1, -3, 1, -1, -3
1503611249297,9, 17, 5, 6, -1, -2, -2, 2
1503611249305,22, 26, 0, -1, 2, -1, -3, 4
1503611249320,10, 12, 4, -4, -1, 0, 3, 9
1503611249327,2, -3, -3, -16, -7, -1, 1, 7
1503611249335,-40, -6, -3, -5, 3, -2, -4, -7
1503611249349,8, -3, -1, -7, -2, 1, 2, 6
1503611249357,0, -7, -4, -9, -4, 2, 0, 1
1503611249365,-14, -5, 3, 4, 15, -2, -4, -7
1503611249380,13, 3, -3, 4, 8, 1, 0, 4
1503611249387,4, -3, 2, 2, -3, -1, 0, -9
1503611249394,-2, 7, 5, 4, -7, -1, -2, -7
1503611249409,14, 4, 4, -6, 1, 0, 1, 9
1503611249412,-9, -13, -6, -2, 1, 0, 1, -5
1503611249417,-7, -7, 2, -1, -7, -4, -2, 1
1503611249425,-22, 0, -2, -3, -9, 1, -4, -8
1503611249439,5, -3, -6, -6, -7, 0, 0, 1
1503611249448,1, 1, 3, 2, 10, 1, 2, 5
1503611249455,1, -2, -3, 4, 4, -6, -12, 6
1503611249469,-6, 13, 2, -5, -9, 0, 5, -1
1503611249487,-2, -10, -10, -2, 1, -6, -3, -1
1503611249499,-6, 6, 4, 0, -4, 2, 0, -5
1503611249507,2, 10, -5, -2, -2, -2, -5, -5
1503611249508,2, -8, -5, -4, 0, -1, -5, 3
1503611249516,0, -3, -4, 3, 11, 3, 2, -6
1503611249529,6, 1, 2, 6, 7, 1, 2, -4
1503611249537,-5, -7, 1, 3, -1, 0, 1, 0
1503611249553,-15, -10, 1, 1, -4, 2, 13, -31
1503611249560,13, 17, 5, 1, -1, -5, -6, 7
1503611249567,-14, -5, -4, -1, 0, -4, -2, -2
1503611249575,-11, -17, -6, 1, 2, 0, -2, -7
1503611249590,25, -4, 1, 0, -9, -2, -3, 14
1503611249597,17, -6, -3, 7, 4, 2, 3, 17
1503611249605,-10, -8, -6, -5, 5, 0, -6, -2
1503611249619,-3, -6, -4, 0, 7, 2, -1, -1
1503611249620,1, 1, 1, 3, 2, 2, 4, -8
1503611249628,-4, 3, 6, 1, -3, -2, 0, 7
1503611249638,-9, -1, -5, -3, 0, 0, 0, -6
1503611249650,8, -8, -4, 3, 3, 5, 2, 11
1503611249657,0, -41, -1, 1, -4, -3, -7, -9
1503611249665,-18, -8, -5, 1, -3, -2, -2, -5
1503611249681,-7, 2, -2, 0, -2, -2, -3, 7
1503611249688,-1, -12, -6, -2, 2, -1, -2, 1
1503611249694,26, 18, 3, 8, -8, 2, 1, 6
1503611249709,4, 7, 1, 1, 4, 2, 0, 4
1503611249717,-10, 4, 1, -2, -2, 1, 2, -6
1503611249725,2, 2, -1, -4, -3, -2, 1, 2
1503611249739,-1, 9, 4, 0, 0, 1, 3, -1
1503611249748,19, 11, 4, 5, 1, 1, 4, 10
1503611249755,-4, -18, -13, -10, -2, -3, -4, 0
1503611249769,-4, -8, -8, -8, -6, -4, -11, -7
1503611249777,9, 12, 7, 1, 2, 0, 5, -3
1503611249785,-11, 0, -1, 0, -1, -1, -11, 17
1503611249799,-13, 0, 0, -4, 0, -3, -8, 10
1503611249807,-14, 1, 1, -2, -5, -1, 2, -12
1503611249814,4, -9, -9, 0, 5, -1, -6, 3
1503611249829,-3, 7, 3, 1, -5, -1, -2, -13
1503611249837,-7, -5, -5, -5, 4, -1, 3, -3
1503611249845,10, 3, 2, 0, 0, 0, 0, -3
1503611249859,-6, 2, 0, -1, -3, 1, -2, -10
1503611249867,-5, -7, -3, 1, 0, -1, 0, -6
1503611249875,-2, -11, -7, -6, -3, -1, -1, -6
1503611249890,1, -13, -8, 0, 4, 3, 7, -1
1503611249897,7, 13, 7, 1, -1, 0, -2, 1
1503611249905,-3, 5, 2, 0, -1, -1, -3, 0
1503611249919,-6, 2, -4, -7, -3, -3, -1, -1
1503611249927,-2, 2, 7, 3, 1, -1, 2, -2
1503611249934,6, 3, 1, 0, -4, 0, -3, -13
1503611249952,7, 3, 0, 1, -1, -1, 2, -3
1503611249957,9, -2, -3, 3, -1, 0, 5, 36
1503611249965,-9, 8, 1, 2, 1, -2, -1, -5
1503611249981,6, 4, 0, 0, 3, -1, 3, -4
1503611249987,9, -3, 4, 0, -2, 2, 1, 11
1503611249994,-6, -12, -12, -8, -6, -7, -7, 0
1503611250009,9, -6, -4, -5, 0, -5, -4, -1
1503611250017,-13, -8, -1, -6, -2, 2, 5, -6
1503611250026,7, 3, -1, -8, -6, -2, -4, 1
1503611250039,-3, 11, 7, 6, 5, 1, 2, -4
1503611250048,-6, -2, -10, -14, 17, 0, 1, 1
1503611250062,0, 5, 2, -5, 1, 5, 1, -2
1503611250070,14, 7, -5, 3, -6, -2, -8, -9
1503611250077,-17, -22, -7, -2, 2, -3, -2, -13
1503611250092,10, 8, 7, 2, -5, 0, -7, 28
1503611250099,15, 3, 2, 1, -4, 1, 1, 9
1503611250107,11, -8, -1, 2, -1, -1, 7, 37
1503611250122,11, 7, -1, -1, 1, -5, -5, -9
1503611250130,-24, 1, 1, 0, -1, 0, 0, -41
1503611250137,-19, 1, -1, -5, -3, -2, 0, -2
1503611250153,8, -5, 1, 3, -5, -1, 2, 0
1503611250159,-2, -9, 0, 1, -1, -1, -4, 6
1503611250167,-20, -9, 1, 3, 2, -2, 0, -4
1503611250183,2, 0, -2, -2, 1, -1, 2, -4
1503611250184,20, 13, 1, 3, 1, 1, 3, 3
1503611250198,1, -6, -10, 2, -3, 2, 9, 7
1503611250212,51, 3, -3, -2, -6, 2, 2, 7
1503611250220,-30, 12, 11, 1, -4, -3, -9, -10
1503611250227,23, 3, -4, -2, -4, -4, 0, 1
1503611250228,-16, -24, -10, -9, 0, -2, -4, -6
1503611250242,17, -9, -8, -4, 1, -4, -5, -3
1503611250251,-6, -15, -7, 0, 3, -1, 0, -6
1503611250258,-10, -11, -9, -5, -1, 0, 0, -5
1503611250272,-4, -34, -16, -2, -2, 3, 9, -1
1503611250280,-10, -19, 0, 0, 2, -1, -1, -12
1503611250288,-12, 2, -2, 0, 0, 0, -1, -7
1503611250302,21, 40, 19, 5, -1, 0, -1, 7
1503611250310,3, 3, 0, -1, -4, -2, -2, 6
1503611250318,11, 3, -4, -3, 0, -1, -4, 11
1503611250332,10, 8, 7, 7, 4, 0, -2, 2
1503611250339,4, 11, 1, -1, 0, 0, 2, -2
1503611250347,-12, -12, -8, -2, 5, -6, -9, -20
1503611250362,-4, -10, -3, 3, -1, 0, -4, -9
1503611250370,-14, -19, -4, 3, -4, 0, -5, -10
1503611250377,20, -7, -1, -2, -2, -1, -2, 17
1503611250392,-6, -14, -3, -1, -2, 1, 1, 15
1503611250399,-8, -2, -5, 1, -2, 2, 1, -5
1503611250407,9, -19, -3, -6, -5, -2, 1, 8
1503611250422,-14, 36, 13, 1, -2, -1, 3, -8
1503611250430,-6, -3, -2, -2, 3, 0, -1, -8
1503611250437,-9, -14, -2, 3, 1, -2, -1, -9
1503611250453,4, 2, -3, -5, -7, 0, -3, -3
1503611250459,4, 0, 1, -4, -3, 2, 3, 3
1503611250460,-9, -20, -10, -4, 6, -2, -7, -3
1503611250467,0, -4, 2, -5, 2, -1, -1, -2
1503611250484,6, -5, 2, 3, -6, 0, 4, 6
1503611250490,-1, 24, 12, 19, 10, 2, 3, 1
1503611250497,-5, -1, -2, 4, 5, -2, 0, -1
1503611250512,14, 5, -1, -4, -7, -6, -12, 1
1503611250519,2, 3, 0, 8, 4, 2, -1, -2
1503611250527,-18, -15, -6, 0, 2, -2, -5, -2
1503611250541,-13, -10, -4, -9, -9, -4, -7, -1
1503611250551,-4, 7, -2, -7, -5, 1, 2, -4
1503611250557,-1, -11, 0, 0, -2, 1, -7, 11
1503611250572,2, 4, 2, -4, -4, -1, -2, 2
1503611250579,-13, -5, -3, -1, -1, -4, -6, -13
1503611250580,-2, -11, -5, -5, -2, -2, -3, -5
1503611250588,12, -15, -4, 0, 8, -2, -6, 15
1503611250601,34, 1, -1, -5, -2, -4, 2, 1
1503611250609,9, 12, -2, -2, -4, 1, 8, -2
1503611250618,-5, 0, -1, -3, -2, -2, 2, 0
1503611250632,-4, -7, -5, -8, -4, -3, -4, -10
1503611250639,-13, 4, -1, -11, 0, 2, -1, -13
1503611250647,-14, -4, 0, 3, -2, 0, -2, -4
1503611250662,-6, 27, 7, 3, -2, 2, 3, -4
1503611250670,-3, 2, -1, -4, -3, -1, 1, 0
1503611250677,-11, -13, -2, -2, -5, 1, 3, 0
1503611250692,-1, 9, 3, 11, 12, 2, -5, -4
1503611250699,0, -6, -4, 2, 3, 0, -1, 1
1503611250708,-13, 0, 0, -1, -6, -2, 2, -4
1503611250722,-4, -15, -4, 1, 2, 2, -4, 5
1503611250730,6, -14, 3, -1, -1, 1, 4, -2
1503611250737,-20, 3, -4, -4, -6, -8, -9, -3
1503611250752,-3, -6, -6, -4, -3, 2, -1, 2
1503611250759,13, -15, -1, 4, -3, -1, -1, 11
1503611250767,-3, 8, -2, 2, 2, 1, 3, -4
1503611250782,23, -3, -6, -1, 1, 1, -1, 3
1503611250790,-7, -4, -3, -7, -6, -1, -2, -11
1503611250797,-11, -16, -11, -6, -1, -2, 6, -7
1503611250812,7, 11, 6, 4, -4, -4, 3, -1
1503611250820,-34, 14, 5, -1, -4, -2, -3, -45
1503611250833,-13, -11, -7, -1, 1, -1, 3, -1
1503611250842,1, -1, 7, 3, 3, 0, 5, -3
1503611250853,-2, -9, -7, -4, -2, 2, 10, -10
1503611250857,27, 15, 7, 5, 3, 3, -1, 82
1503611250872,6, -15, -10, -7, -5, -1, -2, 6
1503611250880,0, 35, 11, 4, 2, 1, 5, -7
1503611250887,-26, 1, 0, -2, 0, 1, 5, 4
1503611250888,37, 3, 0, -1, 0, -3, -9, -15
1503611250902,-39, -21, -10, -7, -5, -5, -15, -40
1503611250912,-5, 24, 14, 6, 3, 1, 4, -3
1503611250917,13, -4, -5, -6, -5, -1, -2, -13
1503611250932,-2, 1, 4, 4, 4, -1, -1, 16
1503611250939,-20, -9, -7, -2, 2, -1, -5, -22
1503611250947,-16, -7, -5, -4, -3, -1, -6, -46
1503611250962,36, 16, 10, 7, 5, 5, 3, 75
1503611250970,-5, 10, 1, -4, -2, -3, -1, 42
1503611250986,-8, -12, -2, -1, -3, 1, 16, 5
1503611250992,23, 11, 9, 5, -2, -2, -11, 82
1503611250999,-26, -6, -2, 0, -1, -2, -5, -17
1503611251000,-6, -8, -4, -2, -3, -3, -4, -34
1503611251014,-15, -27, -11, -4, 0, 0, 4, -1
1503611251022,12, -5, -1, 0, -1, 0, 12, 64
1503611251030,25, 8, -1, -1, 1, 1, 4, -41
1503611251044,-10, 17, 0, -2, -1, -1, 6, 2
1503611251053,13, -1, -3, -1, -3, -2, -2, 17
1503611251059,-48, 11, -1, -6, -10, -13, -23, -88
1503611251074,12, 14, 8, 4, 2, 2, 4, 5
1503611251082,-25, -24, 1, 2, 4, 5, 4, 44
1503611251090,2, 2, 6, -1, -2, -4, -7, -11
1503611251104,24, 5, -3, 1, 1, -3, -7, -64
1503611251112,-8, -28, -12, -4, -1, 1, 2, 13
1503611251120,-3, -3, 2, 1, -3, -2, -7, -21
1503611251134,-6, 12, -2, -6, -5, -8, -13, 26
1503611251142,9, -4, -5, -1, 7, 6, 9, -8
1503611251150,15, 54, 15, 1, -1, 1, 11, 26
1503611251164,-18, 0, -6, -3, -1, 0, -3, 11
1503611251172,-6, 2, 0, 1, 5, 2, -2, -8
1503611251179,16, -3, 0, 0, -1, -2, -4, -33
1503611251194,-12, -12, -4, -2, -4, 0, 2, 15
1503611251202,36, 14, 3, 3, 1, 3, 11, 53
1503611251210,-17, -8, 0, 1, -4, -5, -8, -62
1503611251224,-9, 6, 8, 1, 0, -4, -11, -13
1503611251232,-36, -26, -12, -5, -3, -7, -24, -89
1503611251239,36, -11, -7, -4, -1, 0, 4, 32
1503611251255,10, -22, -8, -2, -3, 0, -1, -17
1503611251262,-5, -13, -9, -3, -4, -3, -1, -18
1503611251270,-23, 13, 2, -7, -2, -4, -3, -11
1503611251284,6, 2, -5, -9, -1, -3, -1, 5
1503611251292,37, 17, 8, 7, 4, 4, 7, 30
1503611251300,4, -3, 1, 5, 0, 2, 3, -26
1503611251315,-6, 15, 3, 2, -1, 4, 8, -4
1503611251322,-5, -7, -5, -2, -4, -4, -7, -2
1503611251331,12, 15, -2, -2, -2, 0, 4, 12
1503611251344,12, -10, -5, -3, -1, -3, 0, 25
1503611251352,-26, 19, 7, -2, 2, -4, -3, -10
1503611251360,-9, -21, -8, -3, -2, 0, -5, -6
1503611251375,4, -22, -7, -4, -5, 2, 7, 9
1503611251382,-23, 3, 3, -3, -6, -4, -4, -9
1503611251390,1, -3, 1, 11, -1, -1, -2, 6
1503611251404,6, -2, -2, -14, -15, -5, 0, 3
1503611251412,-15, -16, -6, -6, -7, -3, 0, 0
1503611251419,-11, 34, 9, 7, 4, 1, -5, -12
1503611251435,-5, -17, -6, -6, -2, 2, 7, 5
1503611251442,6, 7, 1, 0, 5, 1, 2, 9
1503611251450,10, -20, -9, -2, 4, 0, 1, 7
1503611251465,-6, 2, 4, 8, 7, 1, 1, 1
1503611251472,-16, -7, -6, -7, 0, -2, -5, -9
1503611251486,-3, -7, 7, 4, -4, -2, 2, 4
1503611251494,17, 23, 4, -1, 3, 0, -3, 7
1503611251509,-5, -1, -3, -3, -1, 1, 1, -2
1503611251510,5, -1, 4, 0, -5, -3, -1, -10
1503611251524,1, 35, 3, -2, 0, 3, 1, 1
1503611251532,2, -7, -5, 6, 6, -2, -3, 2
1503611251539,-2, 13, 5, 1, 0, 0, -2, -6
1503611251556,-19, 1, -2, 2, 2, -1, -3, -1
1503611251562,-12, -2, -3, -14, -9, -1, -1, 1
1503611251570,-1, -4, 3, 6, -10, -3, -2, -1
1503611251583,-4, -13, -3, 0, 0, 1, -1, 2
1503611251593,14, -5, -3, -1, 0, 1, -1, 2
1503611251599,17, 7, 3, 2, 2, -3, 0, 0
1503611251614,10, -14, -7, 0, 1, 0, 1, 7
1503611251623,-7, -12, -7, 2, 1, -1, 0, 2
1503611251630,4, 22, 11, -2, -4, -4, -1, 0
1503611251644,-4, -1, 6, 4, 1, -1, 0, 1
1503611251652,-5, 3, 6, -3, 3, 3, 2, 4
1503611251660,0, -9, -1, 3, 2, 1, -1, -6
1503611251674,-14, -36, -6, 1, 2, 0, 0, -6
1503611251682,12, 3, -4, 0, -1, 3, 2, 5
1503611251691,-7, 11, 0, 1, 0, -3, -4, -5
1503611251704,21, 9, 11, 3, 1, -3, 4, 8
1503611251712,-11, -2, -1, -8, -13, -3, -4, -10
1503611251719,-13, -19, -9, 3, 3, 1, -3, -13
1503611251734,2, 3, -9, -6, 1, 3, -1, 2
1503611251742,6, -7, 4, -6, -5, 0, 1, 9
1503611251750,-2, 1, -13, -7, -7, -5, -1, -4
1503611251768,1, -19, 1, 6, -2, -2, -1, 2
1503611251772,1, -6, -5, -4, -2, 3, 2, -4
1503611251779,2, 6, -1, -4, -2, -2, 2, 5
1503611251794,9, 11, 8, 3, 1, 1, 1, 7
1503611251802,-11, -10, -7, 1, -1, 0, 0, -6
1503611251810,-8, 16, 13, 10, 10, -1, -5, -10
1503611251824,0, 8, -7, -10, 0, -3, 0, 1
1503611251833,2, -15, -4, -1, -1, -3, 3, 7
1503611251839,0, 8, -1, 1, -4, 0, -1, -2
1503611251854,-1, -3, -4, 3, 4, -1, -3, -2
1503611251862,-16, -7, 0, -2, -1, 1, 1, -7
1503611251870,8, 15, 8, 20, 12, 2, 3, 7
1503611251884,1, 9, 2, 3, -1, -2, 0, -3
1503611251892,-1, -3, -2, -1, 4, -2, -2, 0
1503611251906,-4, -4, -7, -8, -8, -3, -1, -5
1503611251914,-1, 23, 5, -7, -8, -3, -5, -9
1503611251922,6, 5, 3, 0, 5, -1, -1, 6
1503611251937,0, -29, -11, -4, -4, -1, 1, 5
1503611251943,-7, -2, 3, 8, 0, -1, -2, -2
1503611251952,-1, -10, -1, -3, -2, -1, 0, 0
1503611251966,3, -14, -11, -12, -6, 1, 1, 3
1503611251975,-8, -2, -10, -11, -7, 1, 1, -5
1503611251982,12, 31, 17, 6, 2, -2, -2, 2
1503611251997,0, -6, -9, -3, -3, -2, -2, -3
1503611252003,5, -5, 5, 9, 1, 0, 0, 8
1503611252012,-2, 7, 5, -1, -3, -2, -3, -3
1503611252027,6, 38, 2, -1, -1, -4, -10, -15
1503611252035,-1, -9, 1, -1, 1, -1, -1, -2
1503611252042,-11, -27, -11, 0, -2, 2, -1, -1
1503611252059,-1, 10, 2, 4, 4, -2, 1, -2
1503611252064,-2, -13, -9, -3, -4, -2, -4, -4
1503611252072,4, 14, 10, 0, 1, 1, 0, 5
1503611252086,-7, -18, -13, -10, 2, -3, 0, -3
1503611252095,-4, 5, 7, 6, 2, 2, 1, 3
1503611252103,-11, -8, 2, 0, 2, 1, 2, -4
1503611252117,6, -2, 0, -1, -1, 0, 2, 5
1503611252128,-4, -15, -4, -6, -4, -2, 0, 4
1503611252132,0, 52, 11, 0, -2, 0, 1, -4
1503611252146,7, 0, 2, 0, -2, 1, -1, -1
1503611252154,5, -16, -12, -6, -1, 5, 2, 8
1503611252162,-1, 7, 0, 2, -1, 0, -2, -6
1503611252177,-1, -5, -2, 2, 0, 0, 0, -2
1503611252183,2, -6, 12, 5, 1, 0, -2, -1
1503611252193,-5, -29, -11, 0, 0, -1, -6, -2
1503611252206,-3, -12, -6, 1, 1, 0, 4, 8
1503611252214,5, 7, 4, 0, -2, -2, -2, -5
1503611252222,-7, -7, -2, -2, 1, 0, -1, -5
1503611252237,-18, -7, 5, -3, -3, -5, -2, -15
1503611252243,5, 8, 2, 2, 1, 0, -2, -3
1503611252252,8, 7, -7, -12, -4, 0, 1, 6
1503611252266,-5, 6, 6, 0, -1, -1, 1, -5
1503611252274,4, -8, -1, -3, -3, 0, -1, 3
1503611252282,1, -2, -7, -1, 2, 4, 2, 1
1503611252297,-2, -2, 4, 9, 3, -2, 1, -2
1503611252304,-6, -2, -3, -2, 1, -5, -3, -3
1503611252312,0, -5, -11, -6, 0, -2, -2, -1
1503611252328,-20, -20, -6, -7, -2, -4, -9, -29
1503611252334,3, -6, -4, -2, -4, -3, -4, 0
1503611252342,8, -6, -4, -4, -5, 0, 3, 13
1503611252357,-6, -4, 1, 6, 2, -3, -4, -7
1503611252364,-6, -4, -3, 1, -3, 0, -1, -1
1503611252372,0, 9, 7, 0, 0, 1, 4, 1
1503611252386,2, 15, 5, -5, 5, -1, -3, -1
1503611252395,11, 2, 1, -3, -1, 1, 3, 3
1503611252403,11, 10, -2, -4, -7, 0, 2, 10
1503611252417,2, -16, -9, -4, -6, -4, -2, -3
1503611252469,4, 8, 9, 8, 2, -2, -2, -2
1503611252470,2, -1, -2, 1, -1, -1, -1, -1
1503611252477,-9, 4, 5, 1, 0, -1, -3, -2
1503611252484,-6, -5, 0, 2, 0, -1, -4, -8
1503611252485,13, 25, 9, 5, 1, -4, -4, -2
1503611252486,-7, -2, 0, 0, 1, 2, 0, 7
1503611252491,-4, -18, -12, 0, 4, 0, -3, -3
1503611252492,10, 7, 2, 1, 0, 0, 1, 7
1503611252497,-3, 2, 1, -2, -2, 0, 4, 6
1503611252506,-15, -29, -12, -5, -4, -3, 1, -2
1503611252515,4, 5, 8, 0, -1, 1, 3, 6
1503611252522,8, 11, 3, -1, -1, 1, 0, 1
1503611252537,-5, -6, -6, -4, -3, 1, 1, -3
1503611252543,3, 11, 4, -2, -1, -3, -2, -2
1503611252552,-5, -11, -9, 0, 1, 0, -2, 5
1503611252566,-3, 7, 10, 6, 5, 0, -3, -7
1503611252574,-7, -5, -1, -3, -3, -1, -2, 0
1503611252582,-15, -35, -20, -5, -6, -4, -4, -10
1503611252597,-2, -2, -6, -3, -5, -1, -4, -13
1503611252603,13, 4, 0, -5, -1, -1, 0, 2
1503611252612,-4, 0, 1, 6, 4, 2, 0, 1
1503611252628,-3, 19, 12, 5, 2, -2, 2, -1
1503611252634,-1, 15, 5, 1, -6, -5, -3, -9
1503611252642,-4, -32, -18, -3, -6, -1, 2, -8
1503611252657,-4, -20, -9, -14, -11, -1, -1, 0
1503611252664,6, 11, 2, 0, 3, 0, 0, 4
1503611252672,2, 0, -8, -8, -5, 0, -1, -3
1503611252686,-8, -10, 0, -1, -3, -1, 1, -3
1503611252698,3, -3, -1, 1, -4, 1, 3, 18
1503611252702,-8, -1, 0, 1, -3, -4, -3, 1
1503611252719,-9, -3, 1, 4, -1, -1, -3, -16
1503611252724,5, 9, -2, -4, -1, 2, -2, 4
1503611252732,-2, -12, -1, 2, 4, 1, 0, 1
1503611252749,6, 13, 0, 2, 3, -3, -4, -1
1503611252754,-2, 6, 5, -1, 2, -3, -2, 0
1503611252800,-10, -18, -5, 2, 0, -3, -16, 0
1503611252806,-1, 3, 6, 7, 5, -5, -6, -5
1503611252814,4, -3, -4, -4, -5, 0, 5, 2
1503611252815,1, -1, -6, -5, -3, 0, -3, 3
1503611252816,3, 12, 6, -1, -2, 1, 3, 4
1503611252824,-2, -5, -2, -4, -4, -2, 1, -2
1503611252831,2, -6, -5, -6, -6, 1, 4, 7
1503611252837,-1, 6, 1, -1, 2, 0, 1, 1
1503611252844,6, 4, 2, 3, 3, 1, 1, 6
1503611252864,-4, -6, 3, 5, 3, 1, -2, 5
1503611252867,-13, 2, 1, -1, -3, -7, -8, -21
1503611252874,9, 13, -1, -3, 0, -2, -3, -5
1503611252889,2, 5, 3, -5, 1, 3, 3, 1
1503611252899,-5, -12, -6, -4, -6, 1, -1, -1
1503611252904,4, 11, 8, 6, 6, 1, 0, -4
1503611252919,7, -10, 0, -1, -2, 2, 1, 14
1503611252926,1, 2, -3, -2, -5, -2, -1, -2
1503611252935,-7, -2, -4, -1, 0, -1, 0, -10
1503611252949,2, -4, 0, 3, 0, -2, -1, 1
1503611252957,12, 30, 8, 3, 0, 0, 0, 0
1503611252965,-3, -11, -10, -7, 0, -3, -2, -5
1503611252979,-1, -6, 2, 17, 9, 1, -1, -4
1503611252987,-3, 7, 1, -2, 1, 0, -2, -3
1503611252997,-13, -14, -2, 2, 4, 0, -4, -2
1503611253010,-3, -14, -4, 0, 2, 0, 2, 10
1503611253017,2, -11, -3, -5, -3, -4, 3, 4
1503611253033,-1, 6, 0, -1, -4, -1, -1, -8
1503611253039,-6, -8, -8, -3, -1, -2, 1, -6
1503611253047,4, -7, 1, 6, 9, 3, -1, 8
1503611253054,7, 15, 2, -4, -4, 0, -2, -6
1503611253070,4, -1, -1, -1, -6, 2, 2, 8
1503611253077,1, 1, -1, -6, 0, -4, -2, -1
1503611253092,3, 2, -3, -1, 1, -2, 3, 3
1503611253099,-7, -14, 4, -3, -5, 1, -3, -8
1503611253107,-10, 24, 6, 1, -1, -1, -7, -14
1503611253114,-7, -18, -7, -2, 1, 0, 2, 1
1503611253131,-9, -6, -2, 1, -2, 0, 7, 2
1503611253137,-2, 9, 7, 1, -3, 0, -1, 4
1503611253152,2, -5, -3, 1, -2, -2, 3, 3
1503611253159,13, 8, -4, -3, 5, -13, 3, 4
1503611253167,-1, -7, -1, 1, 3, 0, -5, -4
1503611253174,9, 18, 1, -3, -5, 4, -3, 1
1503611253190,15, 29, 3, -7, 1, 2, -3, 2
1503611253198,-6, -7, -1, -5, -4, 5, 1, 0
1503611253212,-11, -6, -2, -6, -1, 0, -2, -4
1503611253219,8, 8, -2, 0, -1, -3, -2, 2
1503611253228,6, 7, 3, 3, -3, 0, -1, 2
1503611253234,-12, -11, -1, 0, 0, 2, 0, -2
1503611253250,-6, -11, -4, -5, -4, -3, -1, -5
1503611253257,7, -1, 1, 3, 2, 1, 0, 1
1503611253273,12, 3, -2, 5, -2, 1, 2, 2
1503611253279,0, -3, -4, -6, -4, -1, -1, 0
1503611253287,-11, -18, 3, 1, -1, -1, 0, 0
1503611253294,-8, 27, 12, 2, 0, -2, 2, -3
1503611253310,1, -4, -3, -6, -1, -3, -1, -2
1503611253317,-6, -3, -3, -2, 1, -3, -4, -8
1503611253333,0, 24, 3, 1, -1, -3, -5, -11
1503611253340,1, 4, -2, -2, -3, -2, -1, -1
1503611253347,2, -9, -4, -1, -2, 3, 1, 2
1503611253354,0, 3, -5, 0, -1, -3, -2, 3
1503611253355,-7, -2, 0, 5, -1, -1, -6, -11
1503611253373,-11, -10, -7, -18, 0, -2, -1, -6
1503611253377,7, -10, -5, 2, 1, 2, 1, 6
1503611253392,-7, -22, -7, -2, 1, -3, -3, -2
1503611253400,1, -3, -2, 0, 0, -1, 0, 0
1503611253408,-2, 0, -1, -3, 3, -1, 1, 1
1503611253414,-10, -7, -2, 2, 0, 0, -3, -11
1503611253431,-5, -2, 3, 16, 3, -1, -3, -1
1503611253437,3, -3, -1, 1, 2, -2, -3, 4
1503611253452,5, -2, -7, 0, -6, 0, 2, 7
1503611253459,-2, -7, -1, 0, -8, 0, 0, 2
1503611253468,3, 6, -2, -8, 9, 1, 0, 1
1503611253476,-10, -14, -10, -1, 4, 2, 1, -1
1503611253490,-6, 4, 2, 4, -1, -4, 0, 3
1503611253497,-21, -3, 2, -1, -6, -2, -2, -18
1503611253499,16, 1, -3, -2, 2, 0, 4, 16
1503611253512,8, -3, -4, -3, -1, 1, 0, 3
1503611253519,7, 12, 8, 2, -2, -1, 0, 19
1503611253527,0, -1, -2, 0, -2, -1, 3, -2
1503611253535,10, 8, 3, -9, -6, 2, 6, 4
1503611253550,-10, 2, 3, -2, -8, -2, -3, 0
1503611253557,4, 10, 0, -5, -7, -5, -6, -7
1503611253572,0, -1, -2, 0, -5, 1, 4, -8
1503611253579,-14, -1, 3, 4, 2, 1, 1, -10
1503611253587,9, -2, -1, 6, 0, 0, 2, 2
1503611253594,-16, -20, -12, -5, 1, -4, -7, -16
1503611253610,-2, 7, 1, -3, -4, -1, -6, -5
1503611253617,3, 1, 0, 1, 4, -1, -1, 0
1503611253633,3, -5, -7, -3, -2, 1, -1, -3
1503611253639,-3, -5, -1, 5, -6, -5, -4, -5
1503611253647,2, 1, 2, -5, 0, -1, -2, -4
1503611253654,6, -6, -1, -2, 0, 1, 2, -7
1503611253670,-6, 1, 6, 0, 4, -4, -4, 2
1503611253677,11, 1, -1, -3, -1, -1, 0, 5
1503611253692,-4, -9, -2, 4, 5, 4, 1, -3
1503611253701,4, -9, 2, 2, 1, 1, -2, -1
1503611253708,-12, -4, 1, 1, -7, 0, -1, -6
1503611253714,-2, 3, 3, -17, -8, 0, -1, 5
1503611253730,5, 1, -7, -9, -1, -4, 0, 4
1503611253738,-1, 4, 0, 10, -8, -4, -6, 0
1503611253752,-2, -10, -3, 4, 0, 0, -7, -1
1503611253759,-9, -5, -2, -3, -3, -1, 7, 15
1503611253769,1, 5, 3, 4, 0, -2, -2, -3
1503611253782,0, -3, -1, -3, -10, 0, 2, -6
1503611253790,-3, -1, 0, 4, -7, 0, 3, 2
1503611253797,-11, -3, -2, 5, 3, -3, 3, -2
1503611253818,7, -4, -2, 4, 5, -2, -5, 0
1503611253826,0, 2, -2, 1, 4, 2, -3, -5
1503611253828,-3, -3, -2, -21, -9, 2, 8, -1
1503611253844,-9, 1, 4, -1, 6, 1, -1, -7
1503611253850,3, 8, 5, -5, -1, -4, -3, 3
1503611253857,-6, 3, 0, -7, -4, 3, -1, -5
1503611253872,3, 8, 0, 4, 4, -3, -4, 3
1503611253879,-4, -9, -1, 2, 2, -1, -3, 0
1503611253887,-4, -6, -3, -4, 1, 2, -5, -4
1503611253902,5, 1, -5, -1, 1, 2, 0, 0
1503611253910,18, 2, 2, -2, -1, -5, -27, 59
1503611253917,-1, -33, -9, -3, 2, -3, -5, -4
1503611253932,1, 11, 5, 7, 2, 3, 10, -9
1503611253939,-6, -2, -5, -3, -1, -3, -1, -3
1503611253947,13, 5, 2, 5, -2, 0, 9, -9
1503611253962,1, 10, 1, 2, 3, 0, 1, -8
1503611253970,0, -3, -4, -3, 1, 1, 6, -8
1503611253977,-1, 6, 1, -9, -6, -2, -4, 0
1503611253992,-12, -24, -10, -25, -19, -5, -3, -7
1503611253999,-2, 6, 0, 5, 3, 0, -1, -1
1503611254007,-8, 4, 2, 6, -2, -1, 4, -24
1503611254022,3, 15, 2, 2, 3, 2, 2, 1
1503611254037,-10, -5, -3, -2, -8, -9, -17, -6
1503611254038,8, -2, 0, 2, -1, -3, -4, 4
1503611254052,22, 11, 2, -1, 2, 0, 2, 2
1503611254059,-3, -7, -5, 0, -1, -2, 3, 1
1503611254069,-11, -3, -2, 1, 4, -2, 1, -1
1503611254082,6, -16, -5, -2, 2, 2, 0, 1
1503611254090,-3, -3, 0, 6, 3, 1, 0, -2
1503611254097,7, 5, 2, 0, -6, -1, 0, 15
1503611254112,-4, -4, -2, 5, 7, 3, 2, 1
1503611254119,8, 5, -2, 0, 0, -1, -2, -5
1503611254129,5, 9, 3, -4, 7, 1, -1, 5
1503611254142,2, 4, 0, -1, -5, -3, -4, -1
1503611254150,-3, -6, -4, 6, -4, 0, 1, -3
1503611254157,-11, -4, 0, -1, 1, -2, -1, -4
1503611254172,6, -8, -6, -1, -4, -1, 2, 6
1503611254173,-13, -6, -3, -3, -3, -2, -4, -23
1503611254179,-4, 1, 2, -1, 1, -2, 0, -4
1503611254187,-1, 6, 7, 7, 5, 1, 2, 4
1503611254203,-10, -3, 1, 5, -3, 2, 1, -7
1503611254210,-2, -4, -3, -3, -4, -1, 4, 4
1503611254217,9, 0, -1, -2, -1, 0, 2, 6
1503611254233,-3, -4, -6, -3, -1, 0, -3, -3
1503611254239,2, 0, -3, -2, -1, -1, -6, 1
1503611254247,6, 3, 2, -1, 4, 0, -2, 18
1503611254262,-15, -3, -2, 1, 5, -3, 0, -9
1503611254271,-3, -11, -1, -2, -5, -2, -1, -3
1503611254277,26, 10, 3, 0, -3, 3, 2, 12
1503611254293,-3, -3, -5, 1, -4, 0, 0, -3
1503611254299,5, 1, 2, 0, 5, -1, 1, 1
1503611254308,4, -6, -7, -6, -3, 0, 0, -2
1503611254322,-22, -5, -5, -2, -2, -2, -1, -13
1503611254330,3, -13, -6, 0, 0, 2, 5, 1
1503611254338,3, -8, -7, -5, -1, -1, -1, 1
1503611254352,1, 11, 9, 5, 0, 0, -1, -3
1503611254359,0, -4, -5, -4, -3, -2, -4, -7
1503611254367,5, 9, -2, -8, 4, 0, 4, 6
1503611254382,-5, 5, 3, -2, 5, 1, 0, 0
1503611254390,-20, -3, 1, -3, -3, -1, -2, -10
1503611254397,-12, 9, -2, -2, -1, -2, 0, -14
1503611254412,4, 14, 7, 1, -2, 0, -3, 3
1503611254419,5, -27, -4, 1, 0, 0, 2, 8
1503611254427,-10, 9, 6, 5, 2, -1, 4, -16
1503611254442,-20, -4, -1, 0, 1, 1, -2, -1
1503611254450,-9, -20, -11, -8, -4, -5, -3, -2
1503611254457,12, 2, -3, -6, -6, -2, -3, 4
1503611254472,3, -10, 2, 6, 4, -2, -3, 4
1503611254480,4, 8, 7, 6, 3, -2, -2, 1
1503611254487,11, 0, -2, -1, -5, -2, 0, 5
1503611254502,-1, -31, -4, -1, -1, -1, 0, 3
1503611254510,-10, 1, -2, 1, 2, 2, 3, -6
1503611254517,5, 14, -6, -4, 0, 2, -2, 0
1503611254532,4, -2, -5, -4, -6, -2, -5, 0
1503611254539,-1, 1, 1, 3, 1, 0, 0, -2
1503611254547,3, -4, -4, 1, 2, -2, -1, -1
1503611254562,10, 18, 4, -2, -3, -4, 0, 1
1503611254572,4, 6, 2, -1, -8, -2, -1, -3
1503611254577,-7, -7, -3, -1, 2, 0, 0, 2
1503611254592,-11, -1, 1, 2, 1, -1, -1, 0
1503611254599,-5, 8, 4, 0, -5, -1, 0, 0
1503611254614,2, 8, 1, -3, -2, -1, -2, -3
1503611254622,-9, 0, 2, -1, -1, -1, -3, -4
1503611254630,4, 4, 10, 8, 8, 1, 0, 4
1503611254638,1, 21, 2, -1, -6, 1, 3, 1
1503611254652,-4, -5, 0, 0, 0, 0, 0, -2
1503611254659,6, 17, 5, 0, 1, 1, 1, 2
1503611254667,-6, -2, 3, -2, 0, -2, -1, 1
1503611254682,8, -18, -4, 2, 1, 2, 2, 2
1503611254690,12, 0, -6, -1, -4, -1, -1, 3
1503611254706,-2, -9, -4, -8, 1, -6, -8, -2
1503611254712,7, 3, -1, -1, 3, 0, 2, 1
1503611254719,-9, -15, -4, -1, -3, -2, -3, -18
1503611254734,-18, -9, -2, -1, 0, 0, -2, -7
1503611254742,2, -28, -14, -9, -6, -2, -3, 4
1503611254750,14, 9, 6, -9, -5, 0, -2, 3
1503611254766,-14, -13, -7, 4, 4, -1, -1, -5
1503611254773,6, 4, -3, 0, -2, -1, 0, 3
1503611254781,-1, 8, 4, 3, 3, 0, 0, -2
1503611254795,-12, -15, -6, -3, 1, 0, 5, -2
1503611254802,9, 5, 1, -1, -3, -1, 1, 5
1503611254810,-12, -9, -7, -1, -1, -1, -1, -3
1503611254824,2, 9, -1, 1, 0, 3, 4, 7
1503611254832,-2, 3, -3, -6, 1, 0, -1, -2
1503611254839,-3, 11, 6, -2, -1, -2, -6, 0
1503611254854,4, 2, 4, 7, 0, -2, -2, 3
1503611254862,-1, -2, 4, 3, 2, 2, 0, -2
1503611254870,2, 9, 3, 0, -1, -2, -5, -2
1503611254884,13, 6, -2, -2, -3, -1, -4, 2
1503611254892,1, -4, -4, -3, -7, -1, 0, 1
1503611254899,5, 9, 7, -1, 2, -1, 1, 2
1503611254915,-4, -7, -4, -2, -3, -1, 2, -1
1503611254921,-16, -14, -6, 1, -3, 0, 3, -1
1503611254930,2, 19, 5, 0, 0, 0, -2, -6
1503611254944,9, 6, 1, 1, 3, -1, -2, -1
1503611254952,3, -4, -4, 3, 1, 0, -1, 0
1503611254959,-11, -5, -7, -3, -1, -2, -3, -4
1503611254975,2, -5, -2, -5, -2, -1, -3, 2
1503611254982,-1, -4, -3, 1, -4, 0, 2, -3
1503611254990,-10, 1, 0, 4, 3, -1, -1, 2
1503611255004,-14, -1, -1, -1, 0, -3, -4, -11
1503611255012,8, 7, -3, 1, -2, -4, -1, 2
1503611255019,-9, -2, 0, 1, -2, -1, -1, -4
1503611255034,3, 0, 11, 6, 1, 1, 0, -2
1503611255042,11, 15, 6, -2, 3, 2, -1, -4
1503611255050,4, -8, -4, -3, -6, -1, 0, 2
1503611255064,4, -1, 10, 7, -3, 0, 3, 4
1503611255074,-2, -9, -1, -2, 3, -1, -3, -3
1503611255079,4, 2, 1, -3, -11, -3, -3, -1
1503611255094,8, 3, -2, 1, -5, 0, -3, -3
1503611255102,-4, -2, 1, 1, -3, 0, -1, -1
1503611255110,-13, -2, 1, -3, 0, -1, -3, -4
1503611255124,-8, 8, 1, 1, -1, -4, -2, -1
1503611255132,6, 3, -1, -8, -6, 1, 2, 7
1503611255141,2, 16, 1, -7, 2, 1, -3, 1
1503611255154,-5, 1, 1, 2, 3, -1, -1, -1
1503611255161,-4, -11, -10, -23, -9, -4, -1, -6
1503611255170,-21, -14, -7, 0, 2, -1, -4, -18
1503611255184,5, -1, 7, 8, 2, 1, -2, 3
1503611255192,8, -4, -3, -6, -2, 0, -1, 5
1503611255199,0, -11, -14, -4, -3, -3, 0, -2
1503611255214,3, 7, 1, 10, 4, -3, 0, 6
1503611255222,13, 1, -4, 0, -1, 1, 3, 16
1503611255230,14, 8, 4, -3, -3, -4, -3, -4
1503611255246,-1, -8, -3, 2, 0, 3, 1, 2
1503611255252,-3, -14, -8, -3, 0, -2, 1, 1
1503611255259,-6, 3, 3, -3, -2, 3, 4, -1
1503611255276,-1, -5, 0, 2, -4, -2, -5, -6
1503611255282,-1, 4, -2, -1, -1, -4, -3, -3
1503611255290,-3, 7, -1, -3, 1, 0, 0, -4
1503611255304,-2, 1, -2, 0, 1, -2, -3, -1
1503611255320,-14, -9, -9, -7, -4, -3, -2, -13
1503611255335,-4, -6, -6, 3, -3, 0, -3, -1
1503611255342,-2, -21, 1, 5, 3, 0, 3, 8
1503611255350,-15, -19, -10, -8, -2, -1, 0, -6
1503611255364,-16, 1, -2, 3, -1, -3, -8, -19
1503611255372,0, -2, -6, -3, 1, 0, 0, -1
1503611255379,-9, -4, -5, -4, -1, -4, -1, -1
1503611255394,6, 20, 7, 2, 1, 1, 1, 1
1503611255402,16, 0, -2, 0, 3, 2, 2, 10
1503611255410,0, -16, -6, -2, -2, -2, -4, -2
1503611255424,21, 21, 5, 3, 1, 3, 4, 9
1503611255432,-10, -3, -3, -3, -1, 0, -3, 0
1503611255439,7, 8, 11, 1, 3, 0, 1, 7
1503611255454,-5, -1, -2, 2, 4, 4, 2, -3
1503611255461,2, -7, -5, 0, 7, 1, -1, 0
1503611255470,-4, 2, -1, 0, -3, 0, -2, -6
1503611255484,-5, -6, -2, 0, -2, -2, -5, -8
1503611255492,9, 37, 10, 2, -8, 0, -1, 2
1503611255499,-3, -11, -1, -2, -5, -1, 0, -2
1503611255514,-11, -28, -22, -11, -3, -5, -3, -9
1503611255522,4, -7, -5, -2, 0, -1, -5, -14
1503611255530,2, -18, -1, 4, 1, -2, 0, 6
1503611255544,-4, -10, -5, -5, -3, -1, 1, 5
1503611255552,2, -8, -3, -4, -4, -1, -1, -1
1503611255559,-10, -13, 5, 5, 3, 4, 2, 6
1503611255576,-10, -4, 2, -4, -11, -1, 1, 0
1503611255582,10, 13, 1, -2, 0, 0, -1, -4
1503611255589,6, -5, -7, -4, 0, 0, 1, 10
1503611255590,4, 6, 8, 6, -5, 0, -1, 1
1503611255604,-3, -2, -9, -7, -5, -1, -2, -2
1503611255612,14, 4, 1, 4, 8, 1, 0, 7
1503611255626,-6, 14, -1, 1, -1, -4, -5, -11
1503611255634,-5, -11, -4, -3, 8, 1, 5, 3
1503611255643,3, 5, -5, -14, -11, -4, -3, -5
1503611255657,5, 14, 11, -2, 2, 1, -4, 1
1503611255664,0, 12, 8, -4, -3, -3, -1, -4
1503611255672,-8, 12, -4, -1, -1, -3, -4, -10
1503611255686,-22, -10, 2, 6, -4, -1, -1, -5
1503611255694,-2, -8, -1, 0, -1, -1, -2, 0
1503611255702,8, -3, 0, 11, 4, 1, 0, 3
1503611255717,-7, 7, 5, 2, 5, 2, 3, 5
1503611255724,-2, -10, -5, -1, 2, 2, 2, 4
1503611255732,11, -9, 2, 2, 3, -3, -2, -8
1503611255746,11, 1, 1, 7, 4, 2, 2, 6
1503611255754,8, 4, 2, 1, -10, -2, -4, 6
1503611255768,-7, -9, 12, 5, 0, -1, -5, -3
1503611255778,-2, -2, -3, -7, 0, 0, -1, -4
1503611255784,3, -1, -15, -12, -2, -2, 1, 5
1503611255792,-6, 5, 12, 4, 1, -1, -4, -6
1503611255813,24, 8, -6, -1, 3, -1, 4, 10
1503611255817,-6, -24, -11, 1, 2, -1, 2, -3
1503611255822,-9, -1, 0, -2, -6, -1, -2, -5
1503611255837,-1, -8, -5, -5, -2, 0, 1, 2
1503611255844,-2, 7, 7, 15, 8, 0, -3, -2
1503611255853,12, 5, -3, -4, -2, -1, 2, 8
1503611255866,-12, -14, -8, -9, -8, -2, -1, -8
1503611255881,3, 4, -1, 8, 8, -2, -3, -2
1503611255883,6, 9, -2, -6, -1, 0, -3, -2
1503611255903,11, -20, -21, -12, -6, -2, -1, -7
1503611255905,-2, 9, 15, 3, -1, -3, -2, 0
1503611255912,-18, 13, -3, -7, -5, -1, -2, -10
1503611255926,-1, -2, 2, 5, 11, 0, -2, -3
1503611255934,2, -1, -3, -1, -3, 0, 1, 3
1503611255941,2, -3, -6, 1, -8, 0, 2, 2
1503611255957,3, 5, 4, -1, -1, 2, 2, 8
1503611255964,9, 3, 7, -2, -4, -4, -2, 3
1503611255972,-19, -5, 1, 0, -5, 0, 0, -7
1503611255986,11, -5, -3, 5, 6, 1, 0, 1
1503611255994,-9, -5, -3, 5, 10, -2, -1, -3
1503611256001,-6, -6, -7, 2, -6, 0, -1, -3
1503611256017,10, 26, 19, 2, 0, 3, -1, -4
1503611256024,8, 25, 5, -4, -2, 2, 1, 6
1503611256032,-5, -15, -6, -6, 0, 0, 1, 9
1503611256046,6, 5, 3, 3, 1, -4, -7, 0
1503611256055,9, 3, -2, 0, -2, -3, 0, 2
1503611256062,-14, -14, -10, -4, 0, 0, -1, -6
1503611256079,2, -1, -3, 2, -1, 0, -1, -2
1503611256091,2, -1, 5, -2, 3, -3, -3, 3
1503611256093,2, 14, 12, 4, 0, 2, 0, 2
1503611256106,-12, -4, -5, -6, -1, 2, -2, -4
1503611256115,5, -2, 3, -1, -3, -1, -1, 5
1503611256122,-9, -10, -2, -3, -3, 0, 2, -7
1503611256137,-12, -14, -11, -3, -4, -1, -3, -10
1503611256146,-17, -12, -2, 3, 0, 1, 3, -5
1503611256152,6, 17, 7, 3, -1, -5, -3, -4
1503611256166,12, 10, 1, -10, -12, 2, 5, 9
1503611256174,-3, -15, -12, -7, -1, 2, 2, 0
1503611256182,-1, 5, 2, -2, 4, 0, 0, 3
1503611256197,-11, -9, -4, -2, 0, -3, -4, -4
1503611256204,-17, -20, -3, -2, 0, -2, -2, -6
1503611256213,9, 2, -5, -2, -1, -1, 1, 3
1503611256226,2, 0, -1, 1, 0, -3, -3, -6
1503611256234,0, 8, 10, 8, 0, -1, -2, -1
1503611256242,-1, -10, -7, -2, -2, 0, 0, -3
1503611256257,-8, -5, -3, -12, -5, 0, -2, -2
1503611256264,0, -4, -3, -1, 0, 1, 0, 1
1503611256272,0, -8, -1, 2, -12, 0, -2, 0
1503611256286,0, 11, 2, 0, 2, 1, -1, 0
1503611256294,-4, -3, -4, 1, -1, -1, 2, -1
1503611256302,-7, -5, -1, 3, 3, 0, -1, -3
1503611256318,2, -6, 2, 2, 6, -5, -22, 16
1503611256324,2, -1, -3, -2, 0, 1, 0, -11
1503611256332,-2, -10, -8, -2, -2, 3, 5, -2
1503611256347,16, 15, 1, 1, -1, -3, -5, 3
1503611256355,-5, 3, 2, 2, -1, -2, -1, -6
1503611256363,-7, -10, -11, -8, -7, 0, 6, 3
1503611256376,-4, 14, 10, 8, 11, 0, 1, -1
1503611256384,-3, -9, -4, -4, -1, -1, -1, 2
1503611256392,-4, -2, -3, -2, -8, -1, 2, -6
1503611256406,5, 21, 3, -6, -4, -3, -1, 2
1503611256414,4, 1, -5, -11, -2, 1, 1, -1
1503611256422,-7, -16, -4, -2, -1, -3, -3, -4
1503611256436,11, 7, -3, -2, -1, -1, -2, 1
1503611256437,1, -5, 0, 2, 0, -1, -2, -3
1503611256444,1, -11, 0, 6, 3, 1, -1, 0
1503611256452,-5, -7, -10, -6, -4, -3, -4, -5
1503611256466,6, 13, 8, 8, 4, 2, 2, 2
1503611256474,0, -1, 2, 0, -3, -2, 1, -4
1503611256482,-8, -8, -8, -3, -3, -1, 1, -2
1503611256496,-3, -5, 1, 1, 3, -3, -4, -1
1503611256497,2, -4, 2, 0, -3, 0, 2, 2
1503611256504,-15, -15, -1, 0, 0, 1, -3, -3
1503611256513,0, -6, -4, 2, 4, 2, 2, 1
1503611256514,-2, -4, -2, 0, 1, -1, -1, -3
1503611256526,8, 13, 5, -2, -1, 1, 0, 4
1503611256534,-3, -4, -2, -2, 2, 1, 1, 4
1503611256549,-3, 20, 11, 3, -1, 1, -1, -4
1503611256557,6, 15, 1, -3, 2, -1, 4, 5
1503611256564,1, 2, 0, 0, 2, -1, -1, -1
1503611256581,-13, -4, 1, -1, 1, -1, -4, -13
1503611256593,7, 15, 4, 0, 0, -3, -4, 2
1503611256595,16, 7, 8, -1, -7, 2, 1, 8
1503611256608,5, 7, 2, 2, -1, -1, -4, -1
1503611256617,-5, -4, -5, -2, 7, -3, 0, 0
1503611256624,-5, 3, 6, -1, -4, 0, 0, 0
1503611256639,-10, -4, -4, -6, -4, 2, 0, -3
1503611256647,-8, -22, -15, -14, -5, -2, 0, 1
1503611256655,-6, 14, -1, -3, 1, -1, 0, -5
1503611256668,-5, -2, 0, -6, -6, -3, 0, -3
1503611256677,0, -4, -4, -11, -5, -3, -1, 1
1503611256685,-3, -6, 2, -1, -1, 0, 2, -1
1503611256699,-7, -3, -1, 2, 2, -1, -4, -5
1503611256706,4, -11, -7, 3, 6, -3, -2, -2
1503611256715,0, -4, 0, 5, 7, 2, 1, 2
1503611256728,8, 4, -6, -3, -9, -1, -2, 1
1503611256736,6, 2, 4, 5, 0, 0, -3, -1
1503611256744,-2, -8, -10, -9, 5, -2, -3, -4
1503611256759,1, -2, -2, 0, -7, -2, -3, 2
1503611256766,-3, -6, 5, 5, -13, 1, -3, 2
1503611256774,11, -8, -6, -5, 4, -1, 4, 0
1503611256789,-1, 6, 8, 5, 5, -1, -1, -2
1503611256796,-3, 1, 2, -1, -1, 3, 1, 2
1503611256804,-1, -7, -3, -7, -4, -1, 1, -1
1503611256819,3, 6, 3, 1, -6, -3, -2, 0
1503611256826,-5, -1, -1, -8, -3, 2, 0, 2
1503611256834,2, 24, 8, 5, -4, -1, 2, 0
1503611256849,-6, -7, -3, 5, 0, 0, -1, -4
1503611256857,-2, -7, -5, -2, 2, -1, -2, -4
1503611256871,5, 6, -2, 5, 6, 1, 2, 0
1503611256879,-1, 11, 7, 2, 1, 0, -2, 0
1503611256893,-4, -2, 0, -7, -4, -3, -1, -4
1503611256895,2, -9, -6, -3, -3, -1, -1, -3
1503611256908,-6, -10, -11, -3, -5, -2, -2, 0
1503611256917,-1, -15, -5, 9, 14, -3, -4, -2
1503611256925,1, 10, 6, -4, -5, -2, 1, 0
1503611256939,-14, -14, -9, -2, -6, -1, -1, -1
1503611256946,1, 21, 2, 10, 7, -1, -3, -4
1503611256954,-12, -15, -11, 1, 2, 1, -2, -5
1503611256968,2, 7, 14, 8, 5, 1, 0, 0
1503611256976,0, -5, -1, -2, -10, -2, 0, -1
1503611256984,16, -11, -8, 0, 1, 3, 1, 6
1503611256999,4, 1, 2, -2, 6, 1, 0, 1
1503611257006,4, 2, 1, -17, -7, -1, 4, 5
1503611257017,-7, -4, -6, -9, -6, -3, -1, -1
1503611257028,-5, -5, 0, 1, 1, 1, -3, -5
1503611257036,-5, 7, 6, -3, 1, 1, 0, -1
1503611257044,-8, -6, -3, -7, -2, 0, -3, -1
1503611257059,-11, 6, 4, 4, 2, 1, -2, -3
1503611257066,7, 0, 1, 10, 33, 1, -3, 1
1503611257074,-8, -4, -4, -3, -1, 0, -1, -3
1503611257075,-2, -6, -3, -4, -4, -1, -1, 0
1503611257088,0, 2, -5, -2, -13, -2, -1, -3
1503611257103,19, 2, 3, 4, -1, -1, 2, 6
1503611257104,-7, -17, -4, -2, 2, -4, -4, 0
1503611257119,0, -1, -3, -20, 5, 2, -2, -2
1503611257127,-4, 8, 4, -2, -8, -2, 0, -6
1503611257134,17, 13, 8, 11, 9, 1, -2, 2
1503611257151,5, -4, -1, -5, -7, -4, 0, 1
1503611257157,-6, -17, -9, 3, -2, 2, 1, -1
1503611257164,10, -11, -4, 3, 0, -1, 0, 5
1503611257179,2, 0, 0, 3, 1, -2, -3, 1
1503611257186,18, 15, 1, 6, -1, 0, 0, -1
1503611257194,-13, -1, 3, 1, 1, 1, 1, -1
1503611257208,-15, -1, 0, 1, -2, 1, 2, -3
1503611257218,-14, -13, -17, -17, -17, -6, -7, -8
1503611257224,-4, -6, 1, -7, 6, 4, 2, -2
1503611257239,9, 3, -1, -3, -3, -3, 1, 1
1503611257246,2, -4, -5, -2, -13, -3, -4, -4
1503611257255,1, 10, 9, 5, -6, -3, -1, -5
1503611257268,-15, -9, 0, 5, 2, 0, 0, -3
1503611257277,-12, -3, -3, 5, -3, -1, -1, 2
1503611257285,-3, -3, -3, -5, -7, -4, -2, -1
1503611257299,-13, 6, 5, 1, -2, -1, -1, -2
1503611257306,-7, -15, -5, 0, 2, -2, -5, -6
1503611257315,0, -6, -3, -3, -5, -2, 1, -3
1503611257329,3, 11, 5, 16, 4, 1, 1, 3
1503611257337,0, -3, 0, -6, -2, -1, 2, -1
1503611257344,-6, -7, 2, -2, -6, -1, 0, 0
1503611257359,4, 4, 2, -4, -16, 1, 0, 4
1503611257366,4, -8, -18, -9, -4, -8, -9, -10
1503611257375,8, 15, 10, 4, 4, 2, 1, 3
1503611257389,-1, 4, 1, -6, -1, 1, 2, -3
1503611257397,2, -1, 1, 2, 2, 0, -1, -4
1503611257404,-2, -6, 1, 2, 4, 2, 3, 3
1503611257420,14, -2, -2, -7, -10, -4, 1, 8
1503611257427,5, 10, 1, -4, 2, 0, -2, 1
1503611257434,8, 4, 0, 8, 5, 1, -1, 0
1503611257448,-4, 3, -3, 7, 19, -2, -2, -1
1503611257456,-6, 0, 3, 10, -15, -1, 1, 3
1503611257457,-5, -19, -13, -1, 16, 1, -2, -8
1503611257464,-1, 7, 7, 2, -6, 2, 3, 2
1503611257479,-5, -4, -5, -3, -1, -1, 0, -4
1503611257486,-1, -1, -1, -2, -1, -2, 0, 0
1503611257502,8, 5, -5, -9, -11, -2, -4, 0
1503611257509,2, 5, 8, 2, -2, -1, 0, 2
1503611257516,-3, 3, 0, 0, 2, 2, 3, -1
1503611257531,-6, -16, -8, -8, -4, 0, -6, -2
1503611257539,-4, 0, 1, 3, 5, -3, -1, 2
1503611257546,0, 1, -2, -6, -1, -3, -1, -3
1503611257562,0, -4, -3, 5, 2, 0, -1, -3
1503611257568,13, 3, -3, -2, 3, 3, 2, 6
1503611257577,-16, -14, -6, -6, -6, -2, 1, -5
1503611257591,7, 8, 9, 8, 0, 2, 3, 1
1503611257599,-5, 1, 2, -1, -2, 0, 0, -2
1503611257606,-8, 2, 0, -2, -1, -1, -1, 0
1503611257622,1, -5, 1, 5, 6, 0, -1, -1
1503611257629,-8, -6, -11, -2, -3, -1, 0, -5
1503611257636,0, -5, -5, -9, -6, -2, -3, -1
1503611257652,4, 1, 1, -6, -4, -2, 3, 1
1503611257659,2, 3, 3, -1, 0, -2, -2, -3
1503611257666,-7, -5, -4, 4, 6, -1, -3, -4
1503611257682,-1, -1, -2, -8, -4, 0, -3, -1
1503611257688,-4, 1, -4, -4, -9, -1, -2, -5
1503611257696,-2, -1, 1, 3, -4, -1, 1, 1
1503611257711,-2, 0, 2, 2, -4, -3, 2, 0
1503611257720,-2, 11, 5, 4, 2, 1, 2, -2
1503611257727,2, -1, -5, -4, -7, 0, -1, -1
1503611257741,-7, -7, -3, -5, 1, 0, -1, -3
1503611257748,-4, 8, 7, -1, 0, -1, 1, 3
1503611257757,-3, 6, 6, 2, -1, -5, -8, -6
1503611257771,0, -4, -2, -1, -3, 0, -1, 0
1503611257779,2, -1, -2, 3, -2, -2, 1, 0
1503611257787,1, -2, 1, -5, -3, 0, -3, 0
1503611257801,1, 2, 3, 4, 1, 1, -1, 1
1503611257802,-9, -12, -10, -7, -9, -1, -2, -11
1503611257808,-3, -3, -1, 1, 4, -2, 0, 4
1503611257816,27, 6, 0, 0, 3, -4, 0, 8
1503611257831,13, 11, 2, 2, 1, 0, 3, 1
1503611257839,-7, 3, 4, 0, 4, 1, 1, -1
1503611257846,12, -5, -5, -4, -1, 1, -2, 1
1503611257861,-6, -2, -4, -1, 8, 1, -4, -9
1503611257876,-13, -5, -3, -5, 0, -4, -2, -6
1503611257877,-13, -5, 0, 5, 0, -5, -2, 0
1503611257891,-18, -7, 1, 10, -3, -3, -1, -5
1503611257899,0, -6, -4, -2, -1, 3, 2, 4
1503611257906,-5, -3, -1, -1, -2, 1, 1, 0
1503611257922,-2, -2, 0, 0, 0, 3, 2, 4
1503611257928,4, -4, -2, -3, -2, 2, -1, -1
1503611257937,-3, 11, 11, 3, 1, 3, -2, -3
1503611257951,0, -3, -5, -3, 1, 0, -1, -3
1503611257959,7, -4, -1, 0, -2, -1, 1, 2
1503611257974,-4, -5, 1, 0, -1, -1, -3, -8
1503611257981,2, 1, -2, -1, -2, 1, -2, 0
1503611257989,-8, -1, -3, 5, 11, -3, -3, -1
1503611257997,12, 4, 2, 0, 2, -1, -1, 2
1503611258012,3, 4, 2, -1, -4, -1, -5, -8
1503611258019,9, 3, -4, -1, 3, 1, 3, 6
1503611258035,5, 2, 1, 1, -6, -5, -2, 2
1503611258041,0, -3, -5, -5, -5, -2, -2, -8
1503611258049,-3, 5, -3, -5, -4, 2, 2, 3
1503611258057,-2, -3, -4, -4, 0, -1, 1, 1
1503611258072,-12, -5, 0, 13, 19, 3, -5, -14
1503611258079,4, -3, -6, -10, -8, -2, 0, -2
1503611258095,2, 0, 9, 1, -4, -1, 1, 5
1503611258101,2, -5, -4, 3, 1, 0, 0, -3
1503611258110,-4, -6, -4, -7, -4, 1, 3, 6
1503611258117,-5, -1, 1, 1, -1, -1, -3, 1
1503611258132,-3, 11, 0, -3, -2, -1, -3, 0
1503611258139,4, -4, 0, 4, 4, -2, -2, -1
1503611258155,3, 1, -1, -10, -12, 0, 0, 1
1503611258161,-5, -5, -2, 3, -3, 0, 2, 2
1503611258169,0, 8, 9, 0, 0, 0, 1, 4
1503611258176,-8, -2, -3, -1, -6, 1, 2, -7
1503611258192,-24, -12, -9, -10, -9, -3, -1, -3
1503611258199,15, 13, 6, 1, 4, -2, -1, 3
1503611258215,-3, -6, -5, -7, -10, -2, -1, 1
1503611258223,-7, -5, -6, -4, -3, -3, -5, -2
1503611258230,12, 6, 3, 5, -1, 0, 0, 2
1503611258236,-2, 0, 1, 0, 1, 1, -1, 0
1503611258252,-4, 14, 11, 3, 5, -4, -5, -7
1503611258259,8, 16, 16, 3, 0, -2, -3, 0
1503611258275,3, -10, -8, -2, -2, -3, 2, 3
1503611258282,-8, -12, -15, -8, -1, -2, -2, -3
1503611258290,5, -2, -4, 1, 0, 0, -1, 2
1503611258297,2, -5, -4, -5, -6, -3, -1, 0
1503611258312,-7, -18, -14, -6, -2, -5, -3, -5
1503611258319,24, 3, 0, 0, 1, -1, -1, 5
1503611258335,1, -7, -4, 2, 7, 3, -1, 2
1503611258341,-17, -6, -2, -2, -4, 0, 0, -3
1503611258350,9, -1, -7, 2, 3, -2, 0, 0
1503611258358,-13, -7, -2, 3, -2, -4, -2, -6
1503611258372,3, 0, -2, 1, -2, -1, -5, -3
1503611258379,-6, 15, 6, -1, -2, 0, -1, 1
1503611258395,-7, -3, 2, 0, 0, 1, 1, -4
1503611258402,3, -7, -2, -5, 0, 0, 2, 2
1503611258409,-9, 9, 6, -2, 0, 2, 0, -4
1503611258410,9, 2, 5, -1, -2, 1, 2, 4
1503611258417,1, -10, -7, 2, -3, -1, -2, -1
1503611258432,3, -11, -3, 1, 2, -1, -2, 2
1503611258439,-5, 0, 6, 2, 1, -2, -1, -2
1503611258457,-11, -14, -5, -1, -2, 1, 0, -3
1503611258462,-4, 4, 0, -4, -2, 3, -2, -3
1503611258469,-7, -1, -4, -10, -5, -3, -4, -9
1503611258484,2, 4, 1, 1, 1, 0, 1, 6
1503611258493,6, 6, -2, 3, 3, -1, -3, -2
1503611258499,-4, -15, -6, 0, 1, 3, 3, 0
1503611258515,1, 1, 6, 1, 1, 0, 3, 0
1503611258521,-2, -1, -6, -5, -2, -1, 1, 0
1503611258529,0, 0, -1, 1, -1, 0, 0, 2
1503611258544,-5, 17, 6, 1, -1, -4, -4, -10
1503611258552,3, 7, 0, 1, -3, -2, -2, -1
1503611258559,4, 0, -1, 2, 5, 0, 1, 6
1503611258574,-4, -4, -1, -2, -1, 1, -5, -1
1503611258582,-5, -8, -3, -1, -1, 0, 0, 0
1503611258594,-1, 0, 0, -1, -4, -2, 1, 2
1503611258604,-9, -12, -3, -5, -3, 0, -1, -8
1503611258612,4, 8, 0, 0, -1, 0, 3, 2
1503611258619,-2, -1, 0, 1, -1, 1, 2, -3
1503611258635,0, 2, 5, 4, -2, -2, -3, -8
1503611258641,7, 1, -4, -1, -1, -4, -3, 2
1503611258651,9, 1, -2, -4, 0, 1, 2, 7
1503611258664,-1, 1, 3, 1, -1, -1, -7, 1
1503611258672,9, 4, 2, -3, -11, -2, 3, 4
1503611258679,7, -2, -1, 0, 0, 2, 3, 4
1503611258694,2, 4, 1, 1, 3, 1, 4, 4
1503611258701,-4, -2, 0, -8, -16, -4, -5, -5
1503611258709,-1, 6, 5, 1, 3, 0, 0, -4
1503611258725,-2, -14, -8, 0, 1, 1, 5, 3
1503611258735,16, -1, -4, -1, 3, 2, -1, 5
1503611258739,3, 7, 2, 0, 2, 0, 4, 2
1503611258754,-11, 0, -3, 3, 3, -1, -9, -10
1503611258761,2, 2, 1, 4, 4, 2, 0, 2
1503611258770,-3, 0, 7, 6, 2, 1, 0, -6
1503611258784,9, 6, 1, -4, -2, -3, -3, -2
1503611258796,10, -2, -3, -4, -3, -2, 2, 5
1503611258799,-10, 4, 8, 2, -2, 0, -3, -6
1503611258815,-2, -2, -1, -1, 6, -1, -3, 1
1503611258821,-5, 0, -3, 1, 14, -1, -4, -2
1503611258830,-15, -6, -4, -4, 1, -1, -1, -3
1503611258844,-1, -7, -2, -1, -6, -4, -4, -3
1503611258852,-9, -2, -5, -6, -5, -2, -1, -1
1503611258862,3, 1, 3, 3, 3, 2, 5, 3
1503611258863,3, 0, -5, -8, -5, 0, 3, 12
1503611258874,-3, -1, 0, 2, -2, -1, -3, -1
1503611258881,-4, -2, -2, -4, -5, -2, 0, -4
1503611258889,0, 5, -2, -11, -6, -3, -2, -1
1503611258904,5, -1, -1, 4, 6, 0, 1, -3
1503611258912,2, -2, -5, -3, 0, -3, -1, 1
1503611258919,-1, -6, -4, -2, 0, -1, 3, -2
1503611258935,4, -4, 3, -6, 0, 2, 2, 4
1503611258941,-14, -11, -4, -2, 1, 1, -2, -5
1503611258949,3, -1, -3, 6, 0, -1, -4, 0
1503611258964,-1, 3, 1, 0, -2, -3, -1, 1
1503611258972,-8, -6, -1, 0, -6, -1, -5, -11
1503611258979,6, 7, 1, 0, -5, -3, -4, 1
1503611258994,-2, 3, 0, 3, 5, 3, 4, 2
1503611259002,0, 3, 6, 4, 4, 2, 1, 1
1503611259009,1, 2, 1, 1, -3, -1, 2, -1
1503611259024,-9, -7, -6, -5, -4, -1, -6, -13
1503611259032,-2, -5, -3, -3, -3, -1, -2, 1
1503611259039,-2, 0, 3, 1, 3, -1, 1, 1
1503611259054,23, -1, -1, 0, -1, 0, 2, 1
1503611259062,-3, -2, -2, 1, -3, 1, 4, -3
1503611259071,-7, 7, 0, -2, -2, -3, 1, 1
1503611259084,8, -9, 1, 4, -2, 1, -6, -2
1503611259093,-12, -18, -1, -1, -1, -3, -3, -5
1503611259100,-10, -8, -5, 0, 0, -1, 0, -4
1503611259114,1, 1, -2, 0, 2, 0, 0, 3
1503611259121,-5, -13, -8, -5, -3, -2, -1, 2
1503611259130,5, 7, -2, -5, -4, -4, -2, 0
1503611259144,2, 8, -2, 5, 0, -2, 1, 2
1503611259161,0, 6, 5, 0, 1, 3, -1, -3
1503611259176,-12, -15, -4, -5, -3, -1, -1, -5
1503611259182,-3, 40, 14, 0, -2, -2, 0, -4
1503611259189,2, 7, 3, 4, -3, 0, -2, 2
1503611259205,-7, -13, -6, -4, 0, 0, 2, 3
1503611259212,-8, -1, 3, 1, 0, 0, -1, -6
1503611259219,-2, -4, -5, -5, 0, -1, -1, 3
1503611259238,6, 5, -2, -3, 2, -1, 1, 5
1503611259242,0, -4, -4, -6, -6, -4, -1, 0
1503611259249,-2, 2, -5, 2, -3, -1, 0, 0
1503611259265,-5, -2, 1, -25, 0, 1, 3, 5
1503611259272,3, 30, 8, -7, -1, 1, 0, -2
1503611259279,5, 0, -2, 11, 1, 0, -5, -2
1503611259295,0, -4, 1, 7, -3, -4, -4, -3
1503611259296,-2, -10, -4, 2, -1, 0, -2, -3
1503611259302,-9, -8, -6, 4, 0, -3, -4, -8
1503611259309,6, 2, -6, 8, 1, -2, -3, -2
1503611259324,12, -4, 2, 5, 3, 0, 4, 4
1503611259333,-10, -12, -6, -7, -6, -3, -2, 1
1503611259339,3, 1, -1, -1, 2, 1, 3, 0
1503611259354,-2, -5, -1, -1, 1, 0, 2, -2
1503611259362,1, -1, -1, 0, -3, -1, -2, -3
1503611259377,-5, -5, -2, -6, -2, 1, -3, -2
1503611259384,-2, 10, 2, 3, 0, 1, 0, 2
1503611259392,0, -5, -1, 1, -2, -1, -2, -1
1503611259407,16, -14, -2, -2, -3, 0, 1, 3
1503611259415,0, 8, 11, 4, 2, 0, -3, -7
1503611259421,-5, -5, -5, -2, -3, -5, -7, -7
1503611259437,2, -1, -4, -3, -5, -1, 0, 1
1503611259444,-1, 3, 0, -4, 1, -1, -2, -1
1503611259452,-8, -3, -1, -7, 1, -2, -1, -4
1503611259468,-1, 10, -5, -19, 1, 1, 0, 0
1503611259475,-1, -6, 1, -4, 3, 2, 0, 1
1503611259481,-3, -13, -9, 4, -5, -1, 0, -3
1503611259502,0, -4, 5, 13, 4, -1, 2, 2
1503611259504,-7, 3, 2, 8, 1, -2, 0, -2
1503611259512,-6, 0, -4, 3, -3, 0, 0, -1
1503611259526,10, -1, -1, 1, -1, -1, -1, -1
1503611259535,1, -4, -6, -2, -2, -2, -6, -3
1503611259541,-2, 0, -1, 0, 0, 0, -1, -4
1503611259556,7, 1, 1, -1, 0, 0, -3, -2
1503611259564,-11, 1, 5, 1, 1, -2, -2, -1
1503611259572,-3, -1, 0, 3, 2, -1, 2, 0
1503611259586,17, 22, 3, -2, -4, -4, -1, 2
1503611259596,-4, -7, -4, -6, -1, -1, -2, 1
1503611259601,-1, -2, -3, 0, 2, -1, -3, -1
1503611259602,0, -18, -6, -2, -1, 2, -3, -2
1503611259616,2, 4, 0, -2, 0, -2, 1, -1
1503611259624,3, -1, 0, 3, -2, -2, -1, -1
1503611259632,-2, -3, 0, 0, 2, -2, 2, 1
1503611259646,-6, 7, 3, 0, 0, -1, -2, -2
1503611259654,2, -2, 0, -3, -6, 0, 0, 2
1503611259663,-5, -2, 3, 6, 3, 2, 0, 1
1503611259676,-3, -3, -4, 1, 2, 1, 0, 1
1503611259684,-6, 2, 4, -2, -1, 1, 0, -2
1503611259692,10, 11, 1, 0, -2, -1, -1, 1
1503611259706,8, 4, -3, -3, -4, -1, -1, 2
1503611259714,-12, -8, -5, -1, 4, 1, -1, -8
1503611259715,-2, 5, 6, -2, 1, 0, -2, -2
1503611259721,-8, -9, -1, -2, -3, -1, 2, -2
1503611259736,-5, 1, -5, -2, -3, -2, -2, -2
1503611259737,0, -6, -7, -8, -6, -2, -2, 0
1503611259744,5, 0, -3, -3, -4, -3, -2, -2
1503611259752,-5, 0, 0, -5, -4, -2, -1, -3
1503611259766,-2, 1, 0, -2, -5, -3, 2, -2
1503611259774,-1, 0, 2, 2, 6, -2, -4, 0
1503611259775,-1, -2, 0, -1, -3, 1, 1, 0
1503611259781,-9, 0, -2, 3, 0, 0, -6, -4
1503611259797,-1, 0, -5, 2, -2, -1, -2, 0
1503611259804,-4, 9, 12, 4, 2, -1, 1, 2
1503611259812,-3, -25, -9, -3, -1, -1, -4, -1
1503611259826,4, -6, -3, 1, 0, 1, 0, 0
1503611259835,-7, -2, -3, -4, -2, 0, 0, 1
1503611259841,-5, -6, -3, 5, 11, 2, -3, -3
1503611259856,4, 3, -1, 7, 7, -1, -2, -2
1503611259864,0, 10, 3, -1, -6, -1, -2, 3
1503611259873,5, -5, 2, -1, -3, -2, -2, -2
1503611259887,-1, -5, -4, -4, 1, 0, 1, -4
1503611259894,-2, -1, -1, -3, 2, 1, 0, 0
1503611259902,7, 3, 0, -6, -5, -1, 0, 2
1503611259916,2, 0, -4, 0, -1, -2, -2, -6
1503611259924,-6, 3, 3, -4, -2, 0, 2, -1
1503611259932,14, 4, 3, 5, -1, -4, -1, -1
1503611259946,1, 3, -2, 2, -1, 1, -2, -5
1503611259955,-5, 2, -2, -2, 2, -2, 0, -4
1503611259961,5, 10, 5, 2, -2, -1, -5, -2
1503611259976,-1, 2, -2, 1, -6, 2, -1, -2
1503611259984,-2, -16, -10, 3, 3, 2, 2, 2
1503611259992,5, 4, -5, -5, 0, -2, -2, 2
1503611260007,-6, -10, -5, -9, -5, -3, -3, -2
1503611260014,-3, -1, -2, -6, -3, -1, 1, -1
1503611260021,-2, -1, 6, 1, -1, -1, -1, 3
1503611260036,2, 10, 5, 2, 0, 0, -6, -2
1503611260044,3, -1, 3, 0, 2, -1, 2, 1
1503611260052,-22, -32, -11, -3, -2, 0, 2, -1
1503611260067,2, -10, -9, -2, -5, -3, -1, 1
1503611260075,5, 4, 5, 1, -5, -1, 1, 3
1503611260081,4, -1, -6, 1, 1, -1, -4, 1
1503611260099,8, -6, -4, -1, 1, 1, 1, 6
1503611260104,3, 14, 6, -3, -2, -1, 2, 1
1503611260112,-6, -13, -5, -5, -4, -2, -2, -5
1503611260126,-7, -2, -3, -4, -2, 0, 1, -3
1503611260135,2, 14, 12, 2, 2, -1, -1, -5
1503611260141,2, -17, -5, -3, 0, 2, 1, 4
1503611260156,2, -1, -5, 3, 0, 0, 2, 4
1503611260166,9, 14, 8, 4, 4, 1, -2, -4
1503611260172,9, 2, -3, -4, 0, -1, -2, 4
1503611260186,1, -9, 2, 1, -4, -2, -2, 1
1503611260194,-3, 12, 4, 9, 3, 1, -2, -6
1503611260201,2, -9, -13, -11, -7, -1, -1, 1
1503611260216,-10, 4, 9, 3, 3, 0, -3, 0
1503611260224,-6, -6, -1, 5, -1, -2, -2, -6
1503611260234,-1, 6, 2, -2, -4, 1, 0, -3
1503611260235,-2, -6, -4, -1, -3, 0, 0, 1
1503611260246,-5, -10, -5, -4, 0, -2, -3, -7
1503611260254,-1, 5, 5, -2, -1, -2, 0, 3
1503611260261,-8, 1, 0, -1, 2, -1, -4, 0
1503611260277,-6, -11, -7, -11, -5, -1, 1, -1
1503611260291,2, -15, -9, -1, -4, -2, 0, 5
1503611260300,1, 3, -7, 0, 6, -1, -3, -5
1503611260306,0, -6, 3, -2, 2, -2, -1, -3
1503611260307,3, 10, 6, -1, 1, -1, 0, -1
1503611260315,-6, -2, -4, -1, -5, 0, 0, -2
1503611260328,4, 27, 10, 8, 3, 0, 0, 0
1503611260337,-3, 6, 3, -2, 2, -1, -3, -4
1503611260344,-24, -3, -4, -5, -1, -1, -3, -17
1503611260359,8, 4, 7, 6, -2, 0, 1, -3
1503611260368,4, -1, -12, 1, 4, 0, 3, 12
1503611260375,6, 1, 0, 6, 5, 2, -2, 0
1503611260389,-4, -24, -6, -3, -7, 0, 0, -1
1503611260396,3, 7, 0, -3, -4, -3, -2, -2
1503611260404,1, -10, -9, -4, 3, -1, -1, -3
1503611260419,-1, 9, 7, 0, -4, -3, 0, 1
1503611260436,17, 5, 5, 4, 0, 0, 4, 11
1503611260437,-28, -18, -5, -7, -7, -4, -2, -2
1503611260448,-9, 8, -2, -9, -3, 0, -2, -6
1503611260456,16, -3, -3, -4, -2, 0, 1, 3
1503611260464,-15, -8, -4, -4, -9, -5, -9, -25
1503611260479,-5, 0, -2, -6, -7, 0, 0, -4
1503611260486,-1, -2, -2, 2, -1, -1, 2, 0
1503611260494,7, -4, -7, -4, 1, -1, -7, -1
1503611260509,4, 27, 16, 3, 2, -2, 0, 6
1503611260516,4, -4, -6, 2, 2, -1, 4, 4
1503611260524,-3, 1, 1, 2, 4, 0, 0, -2
1503611260539,4, 0, -6, -6, -1, -1, 2, 8
1503611260546,12, 9, 9, 5, -1, 0, 1, 8
1503611260554,-4, -1, -2, 0, 0, 1, -3, -1
1503611260569,26, -2, -8, -6, -2, 1, 0, 16
1503611260576,-28, -17, 0, 3, 3, -2, -5, -16
1503611260577,5, 21, 5, 0, 3, -1, 2, -1
1503611260584,-2, 4, -1, 3, -1, -2, -3, -3
1503611260601,10, -9, -7, -2, 3, 1, 2, 2
1503611260606,3, -21, -14, -3, 1, -1, 2, 6
1503611260615,-8, 8, 11, 1, 3, 0, -3, -5
1503611260628,-5, -7, -13, -12, -6, -5, -3, -6
1503611260637,-6, 4, 8, 3, -1, 1, -1, -6
1503611260644,6, 27, 9, 2, 2, -2, -2, -2
1503611260659,-3, -5, -5, 0, 0, -2, -4, -1
1503611260669,-1, -1, 3, 1, 1, 2, 0, -5
1503611260675,-5, -4, 10, 5, 3, -2, -2, -3
1503611260688,-5, 4, 6, 0, 1, 3, 3, 5
1503611260696,-10, -15, -4, -1, -1, 0, -3, -9
1503611260697,-19, 1, -3, -4, -7, -2, 1, -6
1503611260704,1, -3, 7, -1, 1, -12, -1, 5
1503611260719,-17, -21, -7, 0, -5, -4, -4, -11
1503611260726,-6, -1, -3, -9, 0, 9, 1, -1
1503611260737,2, 0, -4, -2, -6, 6, 1, -2
1503611260748,-6, -12, 0, 7, 0, -2, -6, -8
1503611260757,2, -5, -6, -7, -2, 0, 3, 4
1503611260764,5, -2, -2, -3, -1, -1, 1, 2
1503611260779,-6, 3, -5, 2, -2, -2, -4, -9
1503611260786,5, -9, 1, -1, 1, 2, -2, 0
1503611260794,30, 11, 12, 5, 1, 1, 2, 10
1503611260808,3, 12, 6, -1, 0, 0, -1, -7
1503611260816,13, -1, 0, -3, 1, -2, -2, 2
1503611260824,2, -7, -3, -1, 0, 3, 2, 4
1503611260839,-19, -6, -7, -5, -4, -2, -6, -10
1503611260846,-8, 5, 2, 2, -6, -1, 4, 1
1503611260854,-3, -5, -2, -2, -1, -2, 0, 1
1503611260870,-22, -13, -11, 1, -8, -4, -4, -9
1503611260876,13, -3, 3, 1, -1, -2, 0, 2
1503611260877,-14, 10, 10, 6, 5, 1, 2, -2
1503611260884,6, 25, 3, -1, -2, 0, -2, 0
1503611260899,0, -2, -2, -3, -1, -5, -1, 4
1503611260907,-17, -2, 0, 0, 0, 0, -2, -16
1503611260914,13, -2, -2, -4, -6, -1, -3, 1
1503611260915,-2, -8, -15, -12, -12, -6, -6, -10
1503611260928,12, 8, 16, 7, 4, 1, 2, 15
1503611260937,6, -8, -4, 2, 2, -1, 1, 2
1503611260945,-8, -11, -10, -4, -8, -5, -4, -5
1503611260959,0, 0, 1, 0, 0, 0, -1, 7
1503611260966,-7, -13, -10, -8, 1, 0, -2, -1
1503611260975,5, 7, 11, 12, 4, 3, 1, 7
1503611260988,15, 16, 5, 0, -3, -1, -2, -2
1503611260996,-6, -5, -4, -4, 4, -1, -1, 1
1503611261004,11, 20, 7, -1, -1, 0, 0, 1
1503611261019,-12, -8, -1, -3, -3, -2, -4, -9
1503611261026,4, -9, -2, 10, 13, 2, 0, 2
1503611261037,-2, 2, -1, 3, 4, -2, 0, -5
1503611261048,1, 2, 2, 4, -3, -2, 0, -3
1503611261056,4, -5, -6, -4, -2, -2, -1, -3
1503611261064,-10, -16, -11, -4, -5, -2, 1, 1
1503611261079,0, 13, 9, 1, -3, 2, -2, -2
1503611261087,-11, -19, -15, -9, -4, -2, -2, -6
1503611261095,-11, -5, 0, 0, -1, -2, 1, -3
1503611261108,-9, -15, -3, -4, 0, -5, -8, -3
1503611261116,4, 5, 0, 3, -1, 0, 1, 1
1503611261117,8, 2, 1, -1, 0, 3, 0, 5
1503611261124,-1, -11, -2, 8, -3, 0, 1, 2
1503611261139,5, 2, -1, -1, -4, 0, -1, 2
1503611261147,-6, -6, 0, -2, -1, -1, -1, 0
1503611261155,6, 2, -1, 2, 3, 0, 1, 7
1503611261168,-3, -6, -3, 0, 1, 0, -2, -6
1503611261183,3, 3, -1, -5, -1, 1, 0, 1
1503611261184,-6, 6, -1, -8, -5, -2, -3, -6
1503611261199,16, 19, 3, 3, -3, -2, 0, 4
1503611261207,-3, 0, -1, 11, 13, 1, 1, 0
1503611261214,-2, -5, -2, -4, 2, 2, -1, 1
1503611261229,4, 4, 4, 0, -2, 1, 2, 5
1503611261239,1, 4, 1, 2, 1, -1, 0, 1
1503611261251,-4, -18, -2, -5, -5, -2, -3, -5
1503611261259,10, 5, 2, 0, -3, 0, -2, -2
1503611261267,-7, 13, -1, -8, -8, -1, -2, 2
1503611261281,-7, 14, 13, 6, 3, 0, 2, -3
1503611261289,15, 0, 2, -2, -5, -2, 2, 4
1503611261297,-5, -9, -7, -2, 4, -1, -3, -5
1503611261311,-3, 2, 2, 1, -3, 1, -1, -1
1503611261319,-7, -27, -11, -6, -2, -4, -3, -4
1503611261326,5, 2, -2, -3, 3, -4, 0, 0
1503611261341,-20, -10, -6, -1, 0, -2, -2, -10
1503611261349,-14, -3, -4, -4, -2, -1, -1, 0
1503611261357,1, 2, 6, -2, -4, 2, 1, 4
1503611261373,3, -6, -3, -7, -6, 1, 2, 6
1503611261379,-6, -10, -7, 4, -2, -4, -3, -2
1503611261386,-13, 5, 6, 9, 1, -4, -4, 0
1503611261401,2, 4, -1, 0, -8, -3, 0, -3
1503611261409,4, -9, -12, 0, -4, 0, 4, -2
1503611261417,-2, -7, -3, -7, -1, -1, 1, 1
1503611261431,2, 6, 6, -1, 0, 1, -2, -8
1503611261439,-4, -9, -6, 0, 3, 0, -1, -1
1503611261440,5, 1, -1, -4, -2, 1, 0, -1
1503611261447,5, -3, -2, 2, 7, -1, 0, 1
1503611261461,-3, -3, -4, 0, 5, 1, -2, 1
1503611261469,0, -2, -1, -2, 12, 2, -2, -1
1503611261477,4, 1, 5, 9, 5, 1, 1, 4
1503611261491,18, 5, 0, -1, 12, 1, 0, -3
1503611261499,15, -9, -16, -2, 18, -2, -2, -1
1503611261507,5, 14, 12, 5, -5, -1, -1, -2
1503611261521,-5, 0, -4, -7, -16, -5, -2, -3
1503611261529,-6, -2, 9, 10, -1, 0, -1, 2
1503611261537,-7, -4, -2, -5, -5, -3, 1, 1
1503611261551,5, -2, -4, -4, -7, 1, 0, -1
1503611261559,-1, 5, 4, -7, -28, -1, 1, 0
1503611261566,-5, -2, -2, -10, -7, -4, -2, -1
1503611261588,-7, 4, 3, -3, 12, 4, 0, -2
1503611261589,1, -6, -7, -6, -8, -3, 1, 0
1503611261597,-10, -5, -2, 2, 6, -1, -1, 0
1503611261611,-14, 0, -4, -4, 2, 1, 3, 1
1503611261619,1, -7, 2, 5, 7, 0, -1, -1
1503611261626,4, 1, -3, -2, -9, -4, 0, 1
1503611261642,6, 2, -2, -3, -3, -1, 0, 0
1503611261649,4, -10, -11, -5, 3, 0, -1, 1
1503611261657,-8, -21, -11, 2, 0, -3, -2, -7
1503611261671,-5, -7, -2, 2, -1, 0, -3, -2
1503611261679,5, 5, -3, 6, 3, 2, 3, 5
1503611261687,7, 6, -2, 1, -1, -1, 2, -3
1503611261701,6, 3, 5, 1, -3, 0, -2, 3
1503611261716,-6, -9, -4, -5, 2, 0, -2, -2
1503611261717,-2, 4, 1, 7, 4, -3, -5, -5
1503611261731,6, 1, 3, 5, -1, -1, -2, -3
1503611261741,2, 17, -2, -11, -1, -2, -1, -2
1503611261746,-1, 6, 7, -2, 2, 1, 0, 0
1503611261761,3, 0, 3, -2, -2, -1, -2, 2
1503611261769,3, 7, 1, -1, -6, -2, -3, 3
1503611261777,-7, 2, 8, -2, -12, -3, -1, -7
1503611261791,-4, 2, 2, 0, 0, 0, -1, -3
1503611261799,-3, 2, -5, -12, -1, -1, -1, 1
1503611261808,-2, -1, -1, -4, -1, -2, -6, -3
1503611261821,-9, -2, 1, 2, 4, 0, 2, 0
1503611261828,6, -1, -1, -1, -1, -1, -1, -3
1503611261836,0, -9, 2, 0, -3, -1, -4, -4
1503611261851,-1, -6, 2, 3, -1, 1, -1, 4
1503611261859,16, -4, -5, 3, 5, 0, 1, -1
1503611261866,-6, 4, 4, 0, 2, -3, 1, -1
1503611261882,3, 2, -2, -2, 3, 2, -2, 1
1503611261889,-5, -9, -8, -2, 4, -2, -3, -1
1503611261897,6, -3, -5, -2, -7, -2, 4, 4
1503611261911,-5, 2, 0, 1, -2, 1, -1, -7
1503611261919,-7, -4, -3, 0, 2, 0, -3, -3
1503611261926,-6, -3, 0, 2, 0, 0, 1, 0
1503611261942,-3, 13, 1, -2, -2, -1, -2, -1
1503611261950,-9, 3, 0, 0, -2, -2, -3, -12
1503611261957,3, -2, -3, 0, 2, 0, 2, 3
1503611261970,1, 7, 3, 2, 1, 2, 3, 5
1503611261979,1, -9, -3, 0, -3, 0, 0, -4
1503611261986,-11, -7, -1, -1, -4, -1, -1, -3
1503611262001,0, -1, 3, 0, 3, 0, -4, 0
1503611262009,3, 2, -1, -2, -1, -1, -2, 0
1503611262017,-10, -1, 2, 1, -1, 0, -3, 0
1503611262031,-12, -12, -2, 1, 1, 0, -2, -1
1503611262039,-2, 6, -2, 1, 0, -1, 0, -6
1503611262046,-2, 21, 1, -6, -2, -2, -1, -8
1503611262061,-11, -6, -3, -2, -2, -1, 3, -1
1503611262069,9, -7, -4, 0, -3, 2, 3, 10
1503611262077,-2, -5, -2, -1, -4, -2, -1, -1
1503611262091,7, 0, 0, 0, 3, -1, -3, 3
1503611262099,2, -4, -1, 2, 1, -2, -1, 3
1503611262109,-10, -12, -5, -3, 2, -4, -3, -4
1503611262121,0, 0, -1, -2, -2, 0, 1, 0
1503611262129,6, -7, -9, 1, 1, 0, -2, 2
1503611262137,3, 6, 5, -1, -3, -2, 0, 0
1503611262151,2, 1, -7, -5, -6, -2, 1, 4
1503611262159,-7, 0, -4, -2, 0, -1, -5, -4
1503611262173,6, 0, 13, 5, 0, 2, 0, -1
1503611262181,10, -6, -5, -3, -2, -4, -6, -6
1503611262189,-6, -11, -7, -5, -4, -2, -2, -2
1503611262204,-1, -4, -2, -5, -4, 0, 0, 2
1503611262211,1, 5, 2, -1, 0, -1, 0, -4
