1503598196639,-2, 0, -1, -2, -1, 1, -1, -1
1503598196651,-3, -1, -2, 0, -1, -2, -4, 1
1503598196660,-1, 0, -3, 0, 1, -3, -3, -1
1503598196667,0, -2, 0, 1, -2, -2, -1, 1
1503598196683,13, 1, 0, -2, -1, -2, -1, 2
1503598196691,0, 1, 0, 1, -2, -1, -2, -2
1503598196697,4, 0, 1, 0, -3, -2, -1, 1
1503598196711,-5, 0, 0, -2, 0, 0, -2, 1
1503598196720,-3, 0, -2, -1, -1, -2, -2, -3
1503598196727,-3, -3, -1, 0, 1, 0, -1, -1
1503598196744,-4, -2, 0, 0, -1, -1, 0, 0
1503598196749,0, 1, -2, -1, -1, 0, -1, -1
1503598196757,1, 0, -2, -1, -1, -1, 1, -1
1503598196771,1, -2, -2, -2, -1, -1, 0, -3
1503598196794,-2, -1, -2, -2, -1, -1, -3, -3
1503598196802,1, -1, -1, -2, -1, -1, -1, 0
1503598196815,0, -2, 0, 1, -1, 0, 2, 0
1503598196817,1, 0, -1, -2, -2, -1, 1, 0
1503598196833,-1, -1, 0, -4, -1, -1, -2, 0
1503598196840,-4, -1, -1, -2, -1, 0, -1, -1
1503598196855,-1, 0, -1, 0, 0, -1, -1, -2
1503598196864,-4, -2, 1, 0, -1, -1, -1, 0
1503598196870,-1, 2, 0, 0, -2, -1, 0, -2
1503598196878,-1, -3, -4, 0, 0, -2, -2, 0
1503598196893,-1, -3, -1, -1, -2, 0, 0, 1
1503598196900,-2, 0, -1, -3, 0, -1, -1, -1
1503598196916,11, 0, -3, 0, 0, -1, 0, 1
1503598196922,10, 1, -1, -1, -2, 0, 1, 1
1503598196930,0, 0, -2, -1, 0, 0, 0, 0
1503598196937,-3, 0, -1, 0, -1, 0, -2, -3
1503598196953,-4, -1, -1, 0, 1, -1, -1, 1
1503598196960,-5, 1, -2, -1, 0, 0, -1, -2
1503598196976,-4, -3, 1, 0, -2, -1, -1, -1
1503598196982,2, 1, -1, 0, 0, -1, -1, 2
1503598196983,-5, -6, 1, 0, -2, -2, -1, -1
1503598196990,-4, -1, -2, -2, 0, -3, -1, -1
1503598196997,-3, -1, 0, -1, -2, 1, 0, -2
1503598197013,-7, -2, 0, -2, -1, 0, 2, -1
1503598197021,-3, -3, -1, 0, 0, 0, -1, -4
1503598197035,0, -1, 0, 1, -1, -1, 0, -2
1503598197042,1, -5, -1, 1, 0, 1, -1, -2
1503598197043,-1, 0, -1, -2, 0, -1, 0, 1
1503598197050,5, 4, -1, -1, -1, -3, -1, -3
1503598197059,0, 1, -2, -1, -1, -1, -1, 1
1503598197072,-2, 0, -1, -1, 0, 1, -2, 1
1503598197079,-5, 0, -2, 0, -1, -1, -2, -3
1503598197095,1, -3, 0, 0, -1, -1, -2, -3
1503598197102,-3, -2, -2, 0, 0, 0, 0, 0
1503598197113,0, -2, -1, -2, -1, -1, -2, -3
1503598197117,1, -3, 1, 2, 1, -1, 0, -3
1503598197132,-2, -1, 0, 0, -1, -1, 0, 0
1503598197140,-5, -2, -1, 0, -1, 0, 1, 0
1503598197155,-7, -2, -3, -2, -1, -1, 0, 0
1503598197164,-13, -1, 1, -1, -1, 0, 0, -2
1503598197170,2, 1, -1, -1, 1, -3, -3, 0
1503598197185,9, -2, 0, -2, -1, 1, -2, 0
1503598197192,-1, 1, 1, -1, -1, 0, 0, -2
1503598197193,-6, 1, 0, -1, 0, -2, 1, 0
1503598197200,3, 1, 0, 0, -2, 0, -1, 0
1503598197223,-3, -2, -1, -1, 0, 0, -1, -2
1503598197230,-6, -2, 0, -1, 0, 0, 0, -3
1503598197248,1, -1, -1, 0, -1, -1, 0, 0
1503598197253,10, 2, 0, 0, -1, -1, -2, -1
1503598197260,-1, 1, 1, -1, -1, -2, 2, 1
1503598197275,-1, -2, -1, -1, -1, 0, 2, 1
1503598197283,1, -3, -1, -1, -1, -1, -3, -1
1503598197291,1, -2, 0, 1, -1, -1, -4, 0
1503598197305,-5, -2, -2, -2, 0, 0, 0, -1
1503598197316,0, -2, -1, -2, -1, 1, 0, 3
1503598197320,4, -2, -1, 1, -1, -2, -2, -1
1503598197336,-4, -1, -1, -2, -1, -1, 1, -3
1503598197342,6, 1, 1, 0, 0, -1, 0, 1
1503598197351,-13, -6, -1, -1, 0, 0, -1, -3
1503598197365,0, 0, 0, -2, 0, -1, -3, -1
1503598197373,2, 0, -1, -1, -1, -1, -2, 1
1503598197381,-7, -3, -1, 0, -1, -1, -2, -2
1503598197395,3, 0, 0, -1, 0, -1, 1, 0
1503598197402,5, 2, -3, -1, -3, 0, -1, -1
1503598197410,3, -3, -1, 0, 0, -1, -2, 0
1503598197425,-1, 0, -2, -1, -1, -1, 0, 0
1503598197433,1, 0, -2, -1, -1, -2, 1, -1
1503598197440,-2, 0, -1, -1, 1, 0, -1, -2
1503598197455,11, 1, -2, -1, -2, 0, -1, 0
1503598197462,3, 1, -1, 1, -2, -2, 0, 0
1503598197470,1, 0, -1, 1, 1, 0, -2, -3
1503598197485,-5, -1, -2, -1, 0, -2, -2, -2
1503598197492,-11, -1, -1, -2, -2, -2, 0, -3
1503598197500,1, 1, -1, 0, 1, 0, 2, -1
1503598197516,-3, -1, 2, 0, -1, -1, 1, 0
1503598197522,0, -3, 0, -1, -2, -1, -1, 0
1503598197530,-2, 0, -2, -1, -1, -1, 1, -1
1503598197544,3, 0, 1, 0, -1, -2, -1, -2
1503598197545,0, -2, -1, -1, 0, -1, -2, -1
1503598197553,-9, 0, -2, -2, 0, 1, -2, 0
1503598197559,8, 2, 0, -2, -1, 0, 0, 0
1503598197576,6, -1, 0, 1, -2, -1, -1, 1
1503598197582,-4, 0, -1, -2, 0, 1, 0, 1
1503598197590,5, 1, 0, 0, -1, 0, -2, 1
1503598197605,-1, -2, 0, 1, 0, -1, 1, -1
1503598197612,-3, -3, 0, 0, 1, -4, -1, -3
1503598197619,4, 0, -2, -2, -1, -3, -2, 0
1503598197620,-1, 0, 0, -2, 0, -3, -3, -1
1503598197635,0, 0, 0, -1, -2, -1, -3, -2
1503598197642,-1, -4, -1, 0, -1, 0, -1, -1
1503598197650,-2, 2, -1, -1, -2, 0, 1, -2
1503598197664,9, 1, -2, -1, -2, 0, -3, 3
1503598197665,-5, -4, 1, 0, -2, -2, -3, -3
1503598197673,-6, -1, 0, 0, 1, -1, -1, 0
1503598197679,-4, -2, -1, -1, 0, -1, 1, -3
1503598197680,-1, 0, -1, -4, -1, 0, -1, 1
1503598197695,2, 1, -1, -1, -1, -1, -1, -1
1503598197702,0, 0, -2, -1, -1, -1, -1, -2
1503598197710,-1, 0, 1, -2, -2, -2, 1, 0
1503598197725,0, -1, 0, 1, -2, 0, -3, 0
1503598197739,-1, -1, -2, 0, -1, -1, 0, 2
1503598197741,3, 1, 0, 0, 0, -1, -2, -1
1503598197755,0, 0, 0, 0, -3, -1, -3, 1
1503598197762,0, 0, -2, -2, 0, -2, 0, 0
1503598197770,0, -3, -2, -2, 1, -2, -2, -2
1503598197785,-2, -2, -2, -1, -2, -1, 1, 1
1503598197793,0, -1, -2, 0, -1, -1, -1, -1
1503598197800,1, -2, 1, 0, -1, -2, 1, -3
1503598197817,-5, -4, -1, 0, 1, 1, 0, -3
1503598197823,4, 4, -1, 1, -2, -1, -2, 0
1503598197830,1, 0, 0, -1, -1, -1, -1, 0
1503598197844,-2, -1, -1, 0, 0, 0, -1, 1
1503598197853,0, -1, -1, -1, -1, 0, 0, -2
1503598197860,-1, -3, 1, -2, -1, -1, -1, 0
1503598197875,-1, -1, -3, -2, -3, -1, 0, -2
1503598197884,2, 2, -2, -1, -2, -3, 0, -6
1503598197890,-4, -2, -2, -1, 2, 1, -1, -1
1503598197904,6, 1, -2, -1, -1, -2, -2, 1
1503598197905,-5, -1, -1, -1, -1, 0, -1, -1
1503598197912,0, -2, 0, -1, 0, -3, -2, 0
1503598197920,2, 1, 0, 1, 0, -1, 0, 1
1503598197935,-2, -1, -1, -2, -3, 0, -1, 0
1503598197942,-2, -2, -1, -1, -2, -1, 1, -2
1503598197950,1, 0, -1, -1, -1, -1, 0, -2
1503598197964,1, 1, -2, -3, -2, 1, -2, -2
1503598197965,-3, -3, -2, -2, 0, -2, -2, -1
1503598197973,1, -1, 2, -1, 0, -3, -1, 0
1503598197979,-1, -2, 1, -2, -1, 1, 0, -2
1503598197995,0, 0, -1, 0, -1, 2, -2, -1
1503598198002,-20, -2, -2, -2, -1, -1, 0, 0
1503598198010,1, -1, -2, -1, -2, -1, -1, -4
1503598198025,4, 1, 1, 0, 1, 0, -1, -2
1503598198033,-8, -1, -1, -1, 0, -2, 2, -1
1503598198040,1, 0, -1, 0, 0, -1, -2, -2
1503598198055,4, 0, 0, 1, 0, -2, -2, 0
1503598198062,-2, 0, -2, 0, 0, 1, -1, -1
1503598198070,2, -3, -1, -1, 0, 1, -1, -1
1503598198085,0, -1, -1, -2, -2, -1, -1, 0
1503598198092,0, 0, 0, 0, 0, -1, -1, -1
1503598198107,4, 0, 0, 0, -2, 1, -1, -1
1503598198115,-3, -2, -1, -1, 0, 2, -1, 1
1503598198122,2, -3, -2, -2, 0, 2, 0, -2
1503598198138,0, -3, -1, -2, -1, -2, -1, -2
1503598198145,5, 1, 0, -2, 1, -3, 0, -1
1503598198153,4, -3, 1, 0, -1, -1, 2, 0
1503598198167,-1, 0, -2, 0, 0, -2, -2, 0
1503598198175,-10, 1, -2, -1, 0, -1, -2, -1
1503598198182,-2, 0, -1, -1, -1, -1, 0, -1
1503598198197,1, 1, -1, 0, -2, 1, -2, -1
1503598198207,3, 1, -1, -2, -2, 1, -2, -1
1503598198212,-1, -1, 0, 0, -1, -1, -1, -1
1503598198227,-5, -2, 0, -1, -2, -1, 0, -2
1503598198236,-3, -1, -1, 0, 0, 1, -2, -1
1503598198242,-21, -5, -1, -1, -3, -2, -2, -1
1503598198258,4, 1, 0, -2, 1, -1, -1, -1
1503598198264,5, -1, 1, -1, 0, -1, -2, -1
1503598198273,11, 0, -2, -1, -1, -2, -1, 0
1503598198287,5, 3, -1, -2, -2, -1, 0, -1
1503598198295,0, -1, 1, -1, -2, -2, -2, 0
1503598198302,0, -1, -1, -1, -1, -2, 0, 0
1503598198319,-3, 0, -2, 0, -1, -1, 1, -2
1503598198325,-2, -1, 0, 1, 0, -1, -1, -2
1503598198340,-29, -6, 0, -2, -2, -2, 1, -5
1503598198347,2, 1, -1, 0, 1, 1, -2, -1
1503598198362,4, 3, 0, 0, -1, -1, -1, -2
1503598198363,0, -3, -2, -1, -3, 2, -2, 0
1503598198377,1, -2, -1, -2, -1, 0, -2, 1
1503598198386,6, 1, -2, -2, 0, 0, 0, 0
1503598198392,5, 0, 1, 0, 0, -1, 1, -1
1503598198407,-3, -1, 0, 1, -1, -1, -2, 1
1503598198415,1, 1, -1, -1, -1, -1, -1, 1
1503598198422,-1, -1, -3, -2, -1, -1, 2, -1
1503598198437,-6, -2, -1, -2, -1, -2, -2, 1
1503598198446,1, 1, -2, 1, -1, 1, 0, 0
1503598198453,-1, -1, 1, 1, -1, -2, 0, 0
1503598198467,1, -2, 0, 1, 0, 0, 0, -3
1503598198476,4, 1, 0, 1, 0, 1, -2, -3
1503598198491,-9, -2, 0, 0, 0, -3, -2, -1
1503598198498,-1, -1, -1, -1, -1, 0, 0, 0
1503598198507,-2, -2, -1, 0, -1, 1, -2, -1
1503598198513,-1, -2, 1, 0, 0, -1, -1, -2
1503598198527,2, 0, 0, -3, -1, -2, 0, 0
1503598198535,4, 4, -2, 0, -1, 0, -1, -1
1503598198542,-2, -2, -2, -1, -1, -1, -1, -2
1503598198558,-4, -1, -3, -2, 0, -1, -1, -1
1503598198565,0, -1, 0, -2, -1, 0, -2, 0
1503598198572,4, 1, -1, 0, 0, 0, -2, 0
1503598198587,-13, -4, -2, 0, -2, -2, 0, -2
1503598198596,-12, -1, -4, -2, -1, 0, 1, -1
1503598198603,5, 3, -1, -1, 0, 0, -1, -1
1503598198617,2, -2, 1, 1, -2, -3, -1, 0
1503598198625,4, -3, -2, -1, 1, 0, 1, 0
1503598198633,7, 2, 0, 0, -1, 0, 1, 1
1503598198647,-2, 0, 0, -1, -2, -1, -2, -2
1503598198655,0, -1, -1, 0, -3, 0, -1, -2
1503598198662,1, 0, -1, -1, -1, -2, 0, -1
1503598198678,-19, -4, -1, -3, 1, -3, -3, -4
1503598198687,2, 0, 0, -3, 0, -3, -2, 1
1503598198693,6, 0, 0, -2, -1, -1, -2, -1
1503598198707,-1, -1, -1, 1, -2, 0, -2, -1
1503598198717,6, -1, -1, -2, 1, 1, 0, -1
1503598198722,4, -2, -1, 0, -1, -1, -1, -2
1503598198737,8, 0, 0, 1, -1, 1, -1, 1
1503598198745,0, -1, -1, -1, -1, 0, -2, -1
1503598198755,-2, -2, -2, -1, -1, 0, -1, -1
1503598198767,4, 1, -1, -2, 1, -1, -2, 1
1503598198775,1, -1, -1, -1, -1, 2, -3, 0
1503598198782,-2, 0, 0, 1, -1, -1, -1, 0
1503598198798,-2, -1, 1, 0, 0, -1, -2, 1
1503598198804,-2, -1, 0, -1, 0, -1, 0, -5
1503598198812,-5, -2, -2, 0, -3, -1, -3, -2
1503598198827,-2, -2, -2, 1, 0, 0, -1, 0
1503598198835,-3, 1, -2, -2, 0, -4, 0, -2
1503598198842,-9, -4, 0, -2, 0, -2, 2, -1
1503598198857,-2, 0, -2, 0, 0, 0, -1, -1
1503598198865,0, 1, -1, -1, -1, -1, -2, 1
1503598198872,8, 2, 1, -2, -1, -1, 0, 1
1503598198888,1, 1, -2, 0, -1, 0, 0, 1
1503598198899,-1, -3, -1, -1, 1, 0, -1, -2
1503598198902,3, -2, -1, -2, -2, 1, -1, 1
1503598198917,1, -2, -2, 0, -1, 0, -3, 1
1503598198925,-1, -1, 0, -1, 0, 0, 1, -3
1503598198932,-1, -1, -3, -1, -2, -2, 2, -2
1503598198947,1, -1, -1, 0, -2, -2, -2, 0
1503598198957,-7, -2, 1, 0, -1, -2, 0, -1
1503598198962,-2, 0, -2, -3, -2, -2, -1, -1
1503598198977,3, 1, -3, -2, -1, 0, -2, 1
1503598198985,-12, -1, -1, 0, -2, -1, 0, -2
1503598198992,1, 0, -1, 0, -1, -1, 0, -3
1503598199007,8, 1, 0, -2, -1, -1, -2, 0
1503598199015,-4, -2, 2, -1, -1, -1, 2, 0
1503598199029,-1, 0, -1, 1, 0, -2, 0, 0
1503598199037,0, -2, 0, -1, -1, -2, -1, -2
1503598199045,11, 1, -1, 0, -1, -1, 1, 2
1503598199060,2, 1, -3, -2, 0, 0, 0, -1
1503598199067,-2, -3, 0, 0, -2, 1, -3, -2
1503598199075,-22, -5, -1, -3, -1, 0, -2, -3
1503598199089,0, 0, 1, 0, 0, -1, 0, -2
1503598199097,8, 1, -1, 0, -1, 0, 1, 2
1503598199104,-9, -1, 0, 0, 0, -1, 0, -3
1503598199119,0, 1, 0, 1, 0, -1, -3, -1
1503598199128,2, -2, -3, -3, -1, -1, 0, -1
1503598199135,5, 0, 0, -2, 0, 1, -1, 0
1503598199149,-1, 0, 2, -3, -2, 1, -4, 1
1503598199159,1, 0, -1, -1, -2, -1, -3, 0
1503598199166,-2, -1, -2, 0, -1, 0, -1, -2
1503598199179,1, 1, 0, 0, -1, -2, 0, -1
1503598199187,7, 0, -1, -2, -1, 0, 0, 1
1503598199195,0, 1, -1, 0, 1, -2, -1, 1
1503598199209,1, -1, -1, -1, 0, 0, 2, -2
1503598199217,-3, -1, -1, 0, 0, 0, -2, -2
1503598199225,-8, -2, -3, 0, -3, -2, 0, -4
1503598199239,-2, -2, 0, -2, 0, 2, 0, -1
1503598199247,1, 1, -1, -2, -1, 0, -2, 1
1503598199258,4, 1, 0, 0, -1, -2, -1, 0
1503598199269,-3, -1, -1, -2, 0, -2, 0, 1
1503598199277,-3, 0, -1, -1, -1, -1, 0, -1
1503598199284,-17, -3, -2, -3, 0, 0, -2, -3
1503598199299,-1, 0, 0, 0, -1, -1, 0, -1
1503598199307,5, -1, 1, 1, -1, -1, -2, 0
1503598199315,-4, -4, -2, -2, -2, 1, -1, -3
1503598199329,3, 0, -2, -1, 0, 0, -1, -1
1503598199337,2, 0, 0, 0, -1, -3, -3, -2
1503598199345,-2, 2, -2, 0, 1, 0, -1, -2
1503598199360,-2, -2, -2, -3, -2, 1, 0, 1
1503598199367,1, 0, -3, 0, -1, -1, 0, 0
1503598199375,-1, -1, -1, 1, -1, -1, -1, -3
1503598199391,2, 0, 1, -1, 0, -2, -1, 0
1503598199397,-2, -2, 0, -1, -1, -2, 1, 0
1503598199404,0, 0, -1, -1, -3, 1, 0, 0
1503598199419,-14, -1, -2, 0, 0, -2, -1, -7
1503598199428,0, -1, -1, -1, 2, -2, 0, -1
1503598199435,8, 2, -1, -1, 0, 0, -1, 2
1503598199449,-5, 1, 0, 0, -2, 0, 0, -2
1503598199458,-2, -3, -2, 0, -1, -1, -1, -2
1503598199464,1, -1, 0, 1, 1, 0, -1, -2
1503598199479,0, 0, -1, 0, -2, 0, -2, -1
1503598199487,1, -1, -1, 0, -3, -2, -3, -1
1503598199496,-2, -2, -2, -1, 0, -1, -2, 0
1503598199509,0, -2, 0, -4, -3, -3, -2, 0
1503598199517,1, 1, 2, 6, 12, 3, 2, 1
1503598199525,-2, -1, -1, 1, -2, -2, -1, -2
1503598199539,1, -2, 2, -4, 1, 2, -2, -1
1503598199547,-2, -3, -1, -4, -1, 0, 0, 1
1503598199555,-1, 0, -5, -4, -7, -5, 0, -3
1503598199569,1, 1, 0, 1, -3, -2, -2, 2
1503598199577,2, 1, 3, 10, 6, 2, 1, 2
1503598199585,-1, -2, -4, -5, 12, 0, 0, -2
1503598199600,1, 1, 2, 14, 7, 2, 3, -1
1503598199607,2, 3, 9, 22, 12, 4, 3, 4
1503598199623,0, -2, -4, -12, -9, -7, -4, -4
1503598199631,-1, -1, -5, -6, -8, -2, -4, -3
1503598199644,0, 0, 1, -2, -4, 1, -1, 0
1503598199646,-2, 0, -2, -6, -5, -3, -3, -1
1503598199661,-3, -1, -1, -4, -3, -2, 1, -1
1503598199668,-1, -1, 3, -2, -3, -1, -2, -3
1503598199675,0, 0, -2, -3, 0, -1, -2, 0
1503598199690,-2, -1, -3, 1, 1, 2, 1, -1
1503598199700,0, 1, -1, -3, -5, -1, -1, 0
1503598199708,-1, -2, -4, -1, 9, 2, 1, 0
1503598199719,-2, -1, -4, -1, -2, -1, -2, 0
1503598199728,-4, -3, -4, -9, -15, -5, -3, -3
1503598199735,-2, -2, 1, -2, 1, 1, -1, 0
1503598199750,0, -1, -1, -4, -3, -1, -1, -1
1503598199760,-2, 0, -1, -1, -3, -4, -3, -1
1503598199765,-2, -1, -2, -3, 8, -1, -2, -3
1503598199780,0, -3, -5, -3, 14, 1, 1, 1
1503598199787,1, 0, 0, 6, 7, 1, 0, 0
1503598199788,0, 2, -1, -9, -18, -7, -3, -2
1503598199798,0, -3, -3, 6, 14, 1, -2, -1
1503598199810,0, -1, 1, 2, 1, 0, 1, 0
1503598199818,-3, 1, 2, -7, -23, -3, 3, 1
1503598199826,-1, 6, 7, -2, -10, -2, 0, -2
1503598199839,0, 1, -2, 2, 3, 1, -2, -3
1503598199847,-2, -4, -3, 2, 22, 4, -2, -3
1503598199855,-2, -2, -4, -6, -2, 1, 1, 0
1503598199869,-4, -6, -8, -8, -10, -7, -2, -3
1503598199877,-1, -3, -2, -6, -13, -6, -4, -2
1503598199884,0, 0, 3, 18, 20, 8, 3, 2
1503598199899,-1, -2, 0, -4, -10, -5, -1, -2
1503598199907,5, 0, 0, 4, 4, 2, 1, 1
1503598199915,0, -9, -7, -9, -9, -4, -1, -2
1503598199930,4, -2, -8, -16, -30, -9, -3, 1
1503598199937,-1, 3, 1, 3, 1, 1, 0, -2
1503598199951,4, 4, -1, -2, -12, -4, -1, -1
1503598199963,2, 1, 2, 13, 18, 5, -1, 2
1503598199967,-3, -2, 2, 6, 0, -3, -1, 0
1503598199982,-2, 0, 0, -8, -18, -6, -3, 0
1503598199990,-3, 0, 0, -7, -7, -4, 0, -2
1503598199999,-11, 8, 4, 3, 1, -1, 3, -2
1503598200011,3, 1, 1, 9, 18, 5, 0, 1
1503598200019,-1, -3, -4, -6, 3, 1, -4, -1
1503598200031,-3, 1, -1, -4, 1, 2, 2, -1
1503598200042,0, 2, 9, 12, 12, 6, 2, 1
1503598200050,-3, -11, -20, -6, -7, -3, -1, -1
1503598200057,8, 3, 2, 4, -8, -4, 1, 1
1503598200072,1, -25, -15, -9, -7, -2, -4, -3
1503598200079,6, -7, -5, 0, 0, -2, -2, -3
1503598200087,4, 0, 9, 18, 14, 5, 3, -2
1503598200102,-3, 5, 4, 9, 22, 6, 1, 2
1503598200110,-4, 3, 3, 0, 8, 1, -1, -3
1503598200117,-3, 1, -3, -5, -4, -3, -3, 0
1503598200131,8, 13, 6, -5, -7, -3, 1, 4
1503598200139,-4, -4, -2, -12, -15, -6, -4, -4
1503598200147,-12, 7, 16, 16, 16, 5, -2, -5
1503598200162,13, 3, -4, -4, -8, -4, -4, 0
1503598200169,-2, 1, 0, 1, -1, -1, -3, -3
1503598200177,0, -2, -10, -6, -3, 0, -4, -4
1503598200191,-6, -3, -1, -9, -10, -1, 5, 2
1503598200200,-21, -12, -5, 0, 1, 2, -1, -1
1503598200207,-31, -6, -1, 9, 3, -3, -4, -4
1503598200222,5, 6, 5, 0, 4, 3, 9, 6
1503598200230,-5, -11, -2, -13, -12, -6, -3, -3
1503598200238,-7, 0, 9, -2, -11, -3, -5, -4
1503598200251,9, 0, -5, -10, -14, -3, -2, -1
1503598200259,10, -2, -4, -6, 5, 2, -2, 3
1503598200267,10, -12, -6, -6, 1, -1, -5, -12
1503598200282,17, 9, 16, 17, 11, 2, 2, 2
1503598200289,16, 3, -6, -8, -6, -3, 2, 7
1503598200297,2, 17, 5, 2, 1, 2, -1, 3
1503598200311,3, -3, -2, 10, 17, 5, 0, 5
1503598200320,1, -6, -5, -6, -8, -8, -7, -10
1503598200330,-26, 0, 5, 13, 25, 8, 4, 5
1503598200342,0, 2, 0, 5, 9, 4, 10, 4
1503598200349,4, 7, -2, -8, -9, -5, -8, -10
1503598200357,-14, 11, 22, -2, -6, -2, -2, -5
1503598200372,11, 9, 8, -2, -1, -1, 1, 7
1503598200379,-5, -11, -13, 4, 8, 3, 2, -2
1503598200387,-19, -2, -8, 0, 3, 0, 2, -5
1503598200402,-4, -13, -13, -3, -3, -2, -2, 1
1503598200410,-10, -4, -5, 9, 5, 1, 0, 0
1503598200417,4, -3, -10, -6, -5, -1, 0, 1
1503598200431,15, 11, 10, -5, -12, -1, -1, 2
1503598200439,-7, -10, -11, -4, -2, -4, -6, -5
1503598200447,-3, -1, 2, -2, -5, -2, -2, 1
1503598200464,1, -11, -10, -1, -2, -1, 1, -4
1503598200469,4, 4, 2, -1, -4, 0, -1, -4
1503598200478,-11, -16, -12, -12, -10, -4, -5, -13
1503598200491,2, 3, 8, 2, -1, -2, -1, -1
1503598200500,-13, -2, 13, -2, -2, -7, -9, -5
1503598200507,2, -4, -10, -5, -5, 0, 0, -1
1503598200522,8, 3, 0, -4, -3, 1, 2, 3
1503598200531,0, 3, 0, -3, -4, -2, -1, -9
1503598200539,-8, -5, -3, -2, -1, -1, -3, -5
1503598200551,-6, -15, -4, -3, -1, 0, 1, -2
1503598200559,6, 0, -1, -2, 0, -1, 0, 6
1503598200567,-1, -5, -5, -3, -2, -3, -4, -4
1503598200582,3, 7, 2, 2, 0, -1, 1, 8
1503598200589,2, 1, -6, -4, -3, -2, 2, 5
1503598200599,1, 6, 7, 7, 3, 2, 3, -1
1503598200611,5, 2, -3, 1, 0, -3, -1, 5
1503598200619,0, 4, 1, -2, -1, -2, -2, -4
1503598200627,2, 0, -4, 0, -1, -2, -3, 4
1503598200642,-7, -10, -16, -8, -3, -1, -2, -3
1503598200649,4, 5, 2, -1, -1, 1, 1, 0
1503598200657,7, 6, 5, 7, 6, 1, 4, 6
1503598200671,-8, -6, 2, 1, 2, -3, -3, -7
1503598200681,6, 0, 9, 6, 0, 2, 2, 5
1503598200687,0, -5, -3, -4, -2, -2, 0, 0
1503598200702,-3, -5, -9, -5, -3, -2, -2, -3
1503598200709,0, 1, 5, 1, -4, 0, 1, 6
1503598200717,2, -1, -2, -5, -7, -1, 0, 1
1503598200733,-3, -4, -3, 3, 5, -1, -1, 1
1503598200734,-2, 2, -2, -3, -2, 2, -1, -3
1503598200739,1, 0, -1, 2, -2, -1, 0, -2
1503598200740,0, 3, 7, -1, 2, 0, -1, 0
1503598200754,0, -2, -2, -4, -3, 0, -1, -3
1503598200762,0, -9, 1, 5, 0, 3, -1, -2
1503598200769,4, 3, 13, 6, 3, 2, 1, -3
1503598200778,-6, -1, -1, -4, -2, -2, -3, -6
1503598200791,-4, -1, -6, -4, -4, -3, -5, -3
1503598200800,-5, 1, -1, 3, -1, 0, 0, -2
1503598200808,1, -3, -3, -4, -3, -2, 0, -3
1503598200822,-2, -1, -7, -3, 1, -1, -1, -1
1503598200829,-2, 3, -1, 3, 1, -1, -1, -9
1503598200837,5, 5, -2, -5, -3, -3, -2, 8
1503598200851,2, -1, -3, -1, -1, -1, 0, 2
1503598200859,3, 5, 4, -5, -10, -3, 1, 5
1503598200867,-3, -1, -3, 1, 0, 0, 0, -1
1503598200882,-1, 2, 3, -1, 2, -2, -3, -2
1503598200889,0, 0, -1, -2, -3, -2, -1, -1
1503598200905,0, -6, -9, 4, 2, 0, -1, -2
1503598200911,-2, -4, -5, -4, -2, -1, 2, 2
1503598200919,2, 11, 12, 6, 3, 1, 0, -1
1503598200934,4, 11, 15, 8, 4, -1, -1, 3
1503598200942,-7, -10, -9, -7, -5, -3, -1, -9
1503598200949,5, 5, 16, 31, 31, 13, 7, 8
1503598200964,-1, 1, -2, -2, 1, -1, 1, -2
1503598200971,-3, -7, -11, -12, -11, -5, -2, -1
1503598200979,-2, -1, -4, -4, -3, -3, -2, -2
1503598200994,-3, 0, -4, -4, -4, -3, -4, -5
1503598201002,1, 13, 18, 2, -2, -2, -5, -5
1503598201009,-1, -1, -1, -3, -3, -1, 0, 0
1503598201024,-4, -5, -3, 0, -1, -2, 0, 0
1503598201031,2, -1, 1, 1, 1, 0, -1, 3
1503598201039,-2, -5, -5, -3, -1, 1, -1, -2
1503598201054,-2, -7, -9, -10, -11, -7, -4, 0
1503598201062,-7, -3, 4, 10, 7, 4, -1, 0
1503598201070,-9, -16, -15, -11, -8, -5, -2, -1
1503598201084,6, 10, 8, 7, 5, 3, -1, 3
1503598201085,22, 7, 3, 1, -1, -1, 2, 2
1503598201091,-4, 4, 1, 4, 4, 2, -2, 0
1503598201101,-4, -6, -6, -5, -2, -1, 1, 0
1503598201114,8, 4, 1, -10, -7, -2, 1, 0
1503598201122,2, -1, -1, 0, 2, -1, -1, 0
1503598201129,-4, -3, 0, 6, 5, 2, -1, -2
1503598201130,-4, 0, -4, -8, -4, -2, -3, -3
1503598201144,0, -3, -4, -3, -3, 3, 9, 6
1503598201151,-3, 1, -1, 1, -1, -1, 0, -3
1503598201159,-20, -4, -5, -1, 2, -3, -9, -12
1503598201174,10, 7, 3, 0, 0, 2, 0, 3
1503598201182,21, 6, -9, -5, -3, 1, 2, 8
1503598201189,8, 4, 0, -5, -4, -6, -5, -1
1503598201205,5, -2, -3, -8, -8, -5, -2, -2
1503598201211,-2, -8, -7, -5, -9, -5, -5, -8
1503598201219,-8, -2, 2, 7, 1, -1, 1, -2
1503598201237,-14, -5, 2, 18, 21, 5, 0, -1
1503598201242,2, -5, -11, -1, 14, 5, 5, 3
1503598201249,-5, -2, -10, -14, -11, -3, -4, -7
1503598201264,-4, -6, 2, 2, 2, -3, -6, -12
1503598201272,1, -1, -3, -3, -1, -1, 1, -1
1503598201280,-9, -2, -1, -12, -14, -1, 2, 5
1503598201295,-1, 5, 6, 4, 0, 1, 1, 0
1503598201303,8, 2, 8, 13, 9, 5, -1, 0
1503598201309,-8, -7, -6, 0, -3, 1, 3, 4
1503598201310,0, 0, 6, 5, -3, 1, -7, -6
1503598201324,-17, -1, -7, -20, -12, -4, -3, -4
1503598201331,-4, -15, -16, -9, -1, -1, 1, 2
1503598201340,15, 1, 13, 27, 29, 9, 7, 5
1503598201354,-3, 1, -8, -8, -8, -7, -8, -8
1503598201362,5, 12, 9, -3, -8, -8, -5, -3
1503598201370,4, -4, -5, 0, 3, 3, 7, 5
1503598201384,-4, 3, 2, 0, 6, -1, 1, -2
1503598201391,1, 2, 6, 4, 7, 3, 2, 3
1503598201399,-6, -3, -8, -5, -9, -2, -7, -2
1503598201414,-30, -18, -11, -7, -5, -5, -10, -22
1503598201422,-2, 4, 6, 4, 0, 2, -1, 1
1503598201429,11, 6, 2, 1, -1, 1, 4, 8
1503598201445,-2, -18, -21, -13, -9, -6, 4, 20
1503598201451,-4, -3, 9, 1, 1, 0, 0, -1
1503598201459,-1, 1, -1, 0, -4, -1, -3, -3
1503598201474,6, -1, -4, 1, 1, -1, -4, -1
1503598201482,12, -1, -2, -3, -3, 1, 7, 23
1503598201489,-8, 8, 16, 4, 1, 1, 2, 3
1503598201505,-13, -11, -6, -9, -10, -4, -1, -14
1503598201513,4, 6, 5, 1, 0, -2, -4, -2
1503598201519,0, -3, -4, -3, -3, -2, -1, 0
1503598201534,4, 4, 3, 6, 10, 3, 0, 3
1503598201542,3, 3, 1, 0, 1, -1, 0, -3
1503598201549,2, -1, -3, -3, -5, -3, 1, -4
1503598201564,3, -5, -7, -4, -1, 2, 1, 7
1503598201565,-5, 2, 0, 2, 1, 1, -6, -12
1503598201572,-8, -2, -2, 1, 1, 1, -1, -18
1503598201580,3, 0, 0, -1, -1, -1, -7, -27
1503598201594,11, 0, -4, -2, -4, -3, -1, 9
1503598201602,-8, -2, 2, 0, 0, 2, -2, -4
1503598201609,-9, -4, -4, 0, -2, -2, 0, -4
1503598201624,4, 0, -4, -5, -5, -7, -3, 5
1503598201632,19, 8, 9, -1, -1, 4, 8, 25
1503598201639,2, 14, 9, 7, 3, 5, 5, 6
1503598201654,2, -5, -12, -3, -3, -4, 2, 3
1503598201662,-4, -2, -1, 0, 1, -2, -7, -9
1503598201669,-7, 2, 1, 0, -1, -2, -2, 0
1503598201685,2, -2, 0, 0, -2, -2, 1, -12
1503598201691,1, 2, 4, 0, 0, 1, 4, 1
1503598201707,-17, -5, 0, 1, -1, -1, -2, -5
1503598201714,1, 3, 3, 0, 1, 0, -3, -6
1503598201722,-1, 3, 2, -1, -1, -1, -1, 1
1503598201729,-11, -9, -7, -4, -1, -4, -4, 4
1503598201744,5, 14, 14, 5, 2, 1, 1, 1
1503598201751,16, 5, 1, -1, -2, -1, -2, -2
1503598201759,-11, -21, -23, -9, -4, -3, -3, -4
1503598201774,-4, 0, -1, -5, 0, -2, -3, -4
1503598201782,-6, -6, -4, -1, -4, -1, -2, -2
1503598201797,2, 7, -1, 5, 1, 3, 3, 8
1503598201807,9, 5, 7, 2, 0, -2, -2, -8
1503598201813,-2, -3, -2, -1, 0, 0, 2, -2
1503598201827,1, -4, -3, 0, 0, -4, -3, -4
1503598201835,0, -5, -10, -4, -4, -4, -2, 1
1503598201842,6, 31, 27, 9, 3, 1, 2, 5
1503598201857,-10, 4, 1, 0, 0, -1, -3, -8
1503598201864,-3, -10, -18, -7, -1, -2, -1, 7
1503598201873,-6, -6, -3, -1, -2, 0, -1, -6
1503598201887,-1, -2, 1, -1, -1, 2, -1, 5
1503598201896,2, -7, -3, -2, -2, 0, 0, 2
1503598201902,-2, -9, -3, 0, -2, 0, 2, 4
1503598201917,2, 2, 3, 2, -1, -1, -2, 0
1503598201924,0, -4, -3, -2, -1, 2, -1, -3
1503598201932,3, 7, 8, 2, -2, -1, -1, 3
1503598201947,0, -4, -8, -1, 0, -4, 1, 2
1503598201955,-5, -4, -2, 0, 0, 0, -2, -1
1503598201962,-1, -2, 1, 1, 3, 8, 4, 1
1503598201980,-1, -1, 1, 0, -2, -1, -1, -2
1503598201985,-1, -3, -3, -3, -2, -4, -3, -1
1503598201992,-1, -4, -6, -11, -14, -6, -2, -3
1503598202009,-1, 1, 6, 8, 6, 1, 0, 0
1503598202022,-3, -3, -7, -4, 1, -2, -1, -1
1503598202023,-5, -3, -2, -2, -4, -2, -1, -2
1503598202037,-5, -3, 1, 1, 0, -1, -2, 1
1503598202047,-1, -3, -3, -2, 0, -1, -1, 1
1503598202052,2, 0, 2, 5, 2, 2, 0, -1
1503598202067,-2, -4, -4, -4, -3, -2, -2, 0
1503598202077,1, -3, -2, -2, 1, -2, 0, 0
1503598202083,2, -1, -1, -2, -6, -2, -2, -1
1503598202098,2, 2, 2, 7, 11, 2, 1, -2
1503598202104,-2, 1, -4, -6, -1, -2, -2, -3
1503598202119,-1, 1, 1, -4, -2, -1, 0, -1
1503598202127,2, -2, 1, -1, 0, -2, -3, -1
1503598202135,-3, -2, -2, -3, -1, -2, -1, -1
1503598202143,-1, 2, -4, -1, -1, -1, -1, 1
1503598202157,1, 1, 3, 1, -1, 0, 0, -1
1503598202164,0, -4, -9, -2, 0, -1, -1, -4
1503598202181,0, 6, 8, 4, -1, 1, -1, 1
1503598202187,1, 0, 2, 0, -1, -1, 0, -1
1503598202202,0, -3, -4, -2, -1, -3, -1, -2
1503598202203,-1, -2, -1, -2, -1, -1, 0, -2
1503598202218,-1, 1, 0, 1, 2, -1, -4, 1
1503598202224,-3, -1, -1, 0, -1, -2, -1, 1
1503598202240,0, -2, 1, 10, 7, 4, 1, 1
1503598202247,-2, 0, -1, -3, -4, -1, -1, -1
1503598202255,-5, -1, -6, -11, -11, -4, -1, -2
1503598202263,0, -2, 0, 2, 2, 0, 0, 0
1503598202277,1, -3, -6, -2, -2, 0, -2, -1
1503598202285,0, 0, 1, -1, -1, 0, 1, -1
1503598202300,-1, 3, 4, -1, 0, 0, -2, -2
1503598202307,-1, 0, -1, -2, -3, -2, -1, 0
1503598202315,0, -3, -2, 0, 1, 0, 3, -1
1503598202322,-1, -1, 1, 0, -1, 0, -1, 0
1503598202345,-1, 2, 0, 1, 2, -2, -2, -1
1503598202360,-3, -3, -2, -2, -3, -2, -2, -1
1503598202367,-1, 0, -3, 0, 0, 0, -1, -2
1503598202378,0, 0, -4, -1, 0, -1, 1, -1
1503598202382,0, -1, 1, -1, -2, -1, -2, 0
1503598202397,-2, -3, 0, -2, 1, -3, 1, -2
1503598202404,-1, 0, 0, 0, 0, -2, 0, 1
1503598202420,-1, 1, 1, -1, -1, 0, -2, 1
1503598202427,-3, -3, -1, 0, -1, -2, 0, -1
1503598202435,-1, 5, 6, 1, -1, -2, -1, 0
1503598202444,0, -3, 0, -1, 0, 0, 0, -1
1503598202457,1, -2, -2, -2, 0, -2, -1, -1
1503598202464,-2, 0, 0, -1, -4, 2, 0, -1
1503598202481,-1, -2, -1, -3, 0, 2, -2, 0
1503598202487,2, -1, -2, 0, 1, -2, 1, 1
1503598202495,0, -1, -1, 0, 0, 1, -1, -1
1503598202502,-1, -2, -1, -3, 1, 1, -2, -3
1503598202517,-1, -3, -2, -1, -1, 1, -1, -2
1503598202524,-1, 0, 0, 0, -1, 0, -1, -1
1503598202532,2, 0, -1, -1, -2, -2, 1, 0
1503598202547,6, 1, 0, -4, -1, -1, -1, 1
1503598202555,-4, -1, 0, 0, -2, -3, 1, 0
1503598202562,-2, -2, 0, 3, -2, -3, -1, -1
1503598202580,-1, -1, -3, -3, -5, -1, -1, 1
1503598202585,-2, -2, -3, -4, -4, -3, -3, -3
1503598202592,-1, 1, 0, 2, -1, 0, -1, -1
1503598202607,-2, -2, -2, -5, -1, -2, -2, 0
1503598202616,-1, 1, 0, 4, 1, 1, 0, 2
1503598202622,-1, -1, -1, -2, 5, 1, 1, -2
1503598202637,-1, -2, -2, -6, -5, -4, -1, -3
1503598202646,-5, 0, -1, 3, 1, 2, 0, 0
1503598202660,0, -1, -2, -1, -1, -1, -3, -3
1503598202667,1, 1, 0, 0, 1, 1, 0, -1
1503598202675,-1, -1, 0, 2, 1, -1, -1, -1
1503598202682,-2, -4, -3, -1, -2, -1, -1, -2
1503598202697,1, 0, -1, 0, 3, 0, 0, -4
1503598202704,0, 2, -3, -1, -3, 1, -1, -2
1503598202721,-4, -3, -1, -2, -2, -1, 0, -2
1503598202727,-3, -4, -5, 1, 1, -1, -1, -1
1503598202735,1, 2, 2, -2, -2, -1, -2, 1
1503598202750,1, 5, 15, 3, -1, 0, 0, -1
1503598202757,0, -4, -3, -7, -8, -1, -2, 1
1503598202764,-1, -3, -2, 1, 1, -3, 0, -1
1503598202787,0, 2, -1, 0, 0, -2, -2, -1
1503598202788,-3, -1, -3, -2, 0, -1, -3, 1
1503598202795,-2, -2, -4, 0, 2, 0, 1, 0
1503598202809,0, -1, -2, 0, -1, -3, -3, -1
1503598202817,1, -2, -2, -3, 0, -1, 0, 0
1503598202824,1, -1, 0, -3, -18, -11, -3, -5
1503598202840,1, 2, 2, 5, 9, 4, 0, -2
1503598202848,1, 1, -2, -2, 2, -8, -1, 4
1503598202856,0, -1, 1, -1, -1, -1, -2, -1
1503598202869,-1, -2, -4, -6, -5, 1, 0, 1
1503598202878,-1, -1, 0, 2, 2, 1, 0, -1
1503598202885,0, -2, 0, 0, 2, 2, -2, -4
1503598202899,-1, -1, -4, -2, -2, 1, 1, -1
1503598202907,-3, 2, -1, 1, -5, 4, 1, 1
1503598202915,-2, -1, -1, -3, -8, -6, -3, 1
1503598202929,1, -1, -1, 4, 11, 6, 1, -1
1503598202937,-1, 0, 0, 0, -1, -3, -1, -1
1503598202944,-2, 3, 8, 0, 0, 0, 0, -1
1503598202959,1, 0, -1, -1, -6, -3, -1, -2
1503598202967,0, -2, -4, 1, 2, 1, -2, -2
1503598202975,-5, -3, -2, -4, 1, 2, 0, 0
1503598202992,0, -1, -2, -1, -1, -2, -1, 1
1503598202997,0, -1, -3, -2, 2, 1, -2, -1
1503598203005,-2, -6, -3, -3, -2, 1, 1, -1
1503598203019,-3, -8, -8, 0, 1, 1, -2, -2
1503598203027,-1, 0, -6, -3, 0, -2, -3, 0
1503598203035,0, -2, 0, -1, -5, -2, -1, -2
1503598203050,-1, 1, -4, -6, -3, 1, -1, 0
1503598203058,-1, -1, 5, 3, -4, 0, 1, 0
1503598203064,-1, -3, -2, 1, 7, 1, 1, 0
1503598203065,-1, 1, -1, -1, -6, -3, 1, 0
1503598203088,0, -1, 0, 0, 1, -1, -1, 0
1503598203095,-2, -3, -2, 0, 9, 2, 2, 1
1503598203109,-1, 0, 2, 3, 4, 0, -2, -1
1503598203123,-4, 2, 5, -4, -8, -4, -3, -2
1503598203125,-2, -3, 1, -3, -4, -1, -3, -6
1503598203140,2, -1, 2, 8, 10, 5, 1, 1
1503598203150,-1, -2, -1, 1, 1, -1, -1, -2
1503598203159,-3, -2, -6, -7, -6, -5, -7, -4
1503598203171,0, 1, 0, 3, 1, 2, 0, 0
1503598203180,1, 1, -1, -6, -6, -2, 0, -1
1503598203185,1, 0, -2, -3, -3, -3, -2, -2
1503598203200,0, 0, 1, -2, 1, -2, 0, 2
1503598203207,1, 8, 5, 4, 1, 1, 2, 0
1503598203219,5, 29, 17, 12, 9, 4, 2, 0
1503598203229,-4, -8, -9, -3, 0, -1, -1, -3
1503598203237,-4, -10, -7, -5, -3, -5, -2, -3
1503598203244,0, 3, 4, 0, -1, -1, -4, 1
1503598203266,-1, -4, -4, -4, -4, -3, -2, -1
1503598203267,0, -5, -2, -2, 3, 0, 2, 2
1503598203275,1, -7, -5, -1, -3, -1, 1, -1
1503598203289,-2, 1, 0, -2, 0, 0, -2, -1
1503598203297,0, -2, -2, -2, 0, -1, -2, 1
1503598203304,-1, 0, -1, 1, 0, 1, 0, -1
1503598203320,-3, -5, -2, -1, -2, 0, 0, 1
1503598203327,0, -2, 0, -3, 1, 0, -1, 1
1503598203335,-4, -3, -3, -1, -4, -3, -2, -3
1503598203350,1, 2, 3, 2, 0, 0, 0, -1
1503598203357,-3, -4, -4, -3, -2, 0, -2, -1
1503598203365,1, 5, 0, 1, -4, -3, -2, -1
1503598203380,1, 1, -2, 2, 5, 4, 0, 2
1503598203387,1, 6, 8, 1, -2, -1, 1, 0
1503598203397,0, 1, -1, 0, -2, -3, 0, -2
1503598203409,-4, -9, -12, -3, 4, 1, -2, -1
1503598203418,0, -1, 2, -2, -3, -2, -2, -1
1503598203424,-2, -2, -1, -1, -3, -3, 0, 1
1503598203439,-1, 0, -2, 0, -1, 2, -2, 2
1503598203447,0, -2, -2, -1, 0, -1, 0, 1
1503598203462,-1, -3, -1, -2, -1, -1, 2, -2
1503598203469,-1, -3, -1, -1, -2, 0, -1, -2
1503598203487,1, -2, -2, -2, -1, 0, 0, -3
1503598203499,-1, 5, 2, 3, 0, 1, 0, 0
1503598203507,1, 0, -2, -1, -1, -1, -1, -1
1503598203515,0, 0, -2, -3, 0, -2, 1, -3
1503598203529,-1, -2, -2, 0, -2, -1, -3, -1
1503598203537,1, -2, -2, 0, -2, -1, 0, 0
1503598203544,-2, -2, -2, -1, -2, 0, -1, -1
1503598203560,-2, 0, 2, -2, 0, -2, 0, -2
1503598203566,1, 7, 10, 3, 0, -1, 0, -1
1503598203575,-2, -4, -3, -1, -2, -1, -1, -1
1503598203589,-3, -4, -4, -2, -2, -3, 1, 1
1503598203597,1, -1, 1, -2, 0, -1, -3, -1
1503598203604,0, 3, 4, 2, 0, 0, -1, -2
1503598203619,0, 1, 2, 2, -2, 1, -1, -1
1503598203620,0, -5, -5, -2, -2, -1, -2, -2
1503598203627,-2, -1, -5, -3, -2, 0, -2, -2
1503598203635,-2, -2, -1, -2, -1, -1, -1, -3
1503598203649,0, -1, -3, -1, -1, -1, 1, -2
1503598203657,0, -4, -7, -2, -2, 0, -2, -1
1503598203664,-2, -7, -2, -2, -2, 0, -2, 0
1503598203679,2, 1, 0, 0, 0, -2, 0, 3
1503598203687,-1, -2, 1, -3, 0, -1, -1, -1
1503598203702,-2, -1, 0, 0, -1, -2, 0, -1
1503598203709,1, 0, -1, -2, 1, 1, -3, -1
1503598203718,0, 3, 1, -4, 1, 1, -1, -2
1503598203731,-1, -1, -2, 1, -2, 0, -1, -2
1503598203739,-1, 2, 1, 1, -1, -1, -1, 0
1503598203747,-1, -2, -2, 0, -2, 0, -2, -1
1503598203762,-1, -1, -1, 0, -1, 1, -1, -2
1503598203769,1, 2, -2, -1, 1, -1, -1, 0
1503598203777,1, 4, 6, 2, 1, 1, 1, 0
1503598203791,-2, 0, 0, 2, 1, -1, 1, 1
1503598203800,-2, -1, 0, 0, -1, -1, -2, 1
1503598203807,-2, -4, -1, -1, -2, -3, -1, -1
1503598203822,0, 7, 5, 2, 1, 1, 2, 2
1503598203830,0, -2, -4, -4, -2, 0, -2, 0
1503598203837,-5, -8, -8, -1, -3, 0, 0, -2
1503598203851,-3, -1, 3, 0, -1, 1, -2, 0
1503598203860,0, -3, -2, -1, 0, -2, -1, -3
1503598203867,-1, -3, -3, -3, -1, -1, 0, -2
1503598203882,1, 0, -1, 0, -1, -2, -2, -1
1503598203893,-1, 1, 0, -2, -1, -2, 0, 0
1503598203897,1, 0, -4, -3, -1, 0, -1, 2
1503598203911,0, 0, -2, 0, 0, 0, 1, 0
1503598203921,-1, 0, -3, -1, 1, -1, 0, 0
1503598203927,3, 3, 4, 3, -2, -1, -1, -1
1503598203942,-1, 1, 0, -1, -2, -3, -1, -2
1503598203950,3, 0, -1, -1, 0, -3, 2, 1
1503598203960,-2, -4, -3, -1, -3, -1, -1, -5
1503598203971,1, -1, -2, -2, -2, 3, 0, -1
1503598203979,-1, -2, -1, -3, -1, -4, -4, -1
1503598203988,-1, 0, -3, 0, -1, -4, -2, 0
1503598204002,0, -1, -1, -1, 0, 2, -1, 1
1503598204010,-2, 0, -2, -1, 0, 0, -2, -3
1503598204017,-2, -2, -2, -1, 1, -1, 0, -1
1503598204032,0, 0, 0, -1, 0, 0, 1, 0
1503598204040,0, 0, 0, 0, -3, 0, 1, 0
1503598204047,-1, -1, -3, 2, -1, -1, -2, -2
1503598204062,0, 2, 2, 0, 1, 0, -1, 1
1503598204070,-1, -1, -1, -1, -1, -2, 0, -2
1503598204078,-2, -2, -1, -1, 0, 0, -1, -1
1503598204092,-3, -1, 1, 1, 0, -1, -1, -1
1503598204100,0, -1, 1, -1, -1, -3, 0, -2
1503598204107,-3, -3, -2, -3, -1, 0, 2, -1
1503598204123,-1, -1, -1, 1, -1, -1, -1, -2
1503598204131,0, 0, 1, 0, 0, 1, -1, -3
1503598204139,1, 0, -1, 0, 2, 1, -1, 0
1503598204152,0, -6, -2, -2, -2, -3, -1, -1
1503598204160,-1, 0, -2, -1, 0, -1, 0, -3
1503598204167,-1, -1, -2, -2, -1, -1, -1, -1
1503598204182,0, -2, -2, -4, -4, -4, -1, 1
1503598204191,-2, 0, -2, 0, 1, 0, -2, 0
1503598204198,0, -1, 0, 0, -2, 0, -2, -2
1503598204219,2, 4, 4, -1, 0, -2, 0, 0
1503598204223,0, 2, 6, 0, -1, -1, -1, 2
1503598204227,1, -3, -1, -1, 0, 0, -1, -1
1503598204245,3, -1, -1, -2, 0, -2, 2, -1
1503598204249,-1, -1, -3, -2, -3, -2, 1, -1
1503598204264,-2, -1, -3, 0, 0, 0, -1, 1
1503598204273,-1, 0, -2, -1, 1, 1, -1, 0
1503598204280,-3, -1, -2, -1, 0, -1, -1, -1
1503598204287,0, -1, 0, 0, -1, -1, -2, -1
1503598204302,0, 3, 4, 0, 0, 1, -1, 0
1503598204309,-1, 1, 5, 1, -1, -1, -1, 0
1503598204317,-3, -5, -5, -3, 1, -2, 1, -4
1503598204333,0, 1, 0, -2, -2, -1, 1, -1
1503598204340,0, -3, -3, -4, 2, 1, 1, -3
1503598204347,-3, -5, -3, 0, 0, 0, -3, -3
1503598204362,1, 0, -1, 1, -3, -3, 0, 0
1503598204369,1, 0, 0, 0, -1, -1, -1, 1
1503598204377,0, -1, -2, -1, -1, -1, -1, -2
1503598204392,0, 0, -1, -1, 1, -1, 0, 0
1503598204400,-1, 2, -2, -1, -2, 0, -1, 0
1503598204407,-2, -4, -4, -1, -2, -1, 0, -1
1503598204422,-1, -3, -2, -1, -2, 0, -2, 0
1503598204429,0, -1, -2, -1, 1, 0, -2, -2
1503598204437,-1, 0, -1, -1, 1, 1, -1, 1
1503598204452,1, -1, -1, -1, -1, -1, 0, 0
1503598204460,-2, -2, -2, 0, -1, -1, 0, -1
1503598204467,-2, 1, 0, 0, 0, -4, -1, -1
1503598204482,-2, -1, 0, 0, -1, 0, -1, -3
1503598204489,1, -1, -1, 0, -1, 0, -1, -3
1503598204497,0, -1, -1, -1, -2, -2, 0, 1
1503598204512,-1, -1, -2, 0, 4, 2, -2, 0
1503598204520,1, -2, -2, -3, -1, -2, -3, -3
1503598204527,-1, -2, 0, -3, -3, 0, -1, 0
1503598204542,-2, -1, 0, 0, -1, 0, -2, -2
1503598204549,-1, -1, 0, -1, -3, -1, 0, -1
1503598204561,-1, -1, 0, -1, -2, 1, -2, 0
1503598204572,0, -1, -4, -2, 1, -1, -1, -3
1503598204580,-1, 1, -1, 1, 0, -1, 1, 0
1503598204587,0, 0, 0, -1, -2, -1, 0, -1
1503598204602,1, -2, 0, -1, -2, 0, -1, 1
1503598204609,22, 0, -1, -1, -1, -1, 0, 0
1503598204626,-2, -1, -1, -1, 0, 0, 0, -1
1503598204632,-17, -3, 0, -1, -1, -1, -2, -3
1503598204640,-10, -1, 1, 0, 0, 1, 1, -1
1503598204653,-4, 1, 0, -1, -3, 0, -2, -1
1503598204662,-1, -1, -1, 1, 0, -1, -1, -1
1503598204669,-3, -1, -3, 1, 0, 0, -2, 1
1503598204684,3, -1, 0, -2, 1, -2, -3, -1
1503598204693,-3, -1, -2, -1, 0, 1, -1, -1
1503598204700,4, 1, -1, 0, -2, -1, -1, 0
1503598204713,-1, -4, 0, -1, -1, -1, 0, -1
1503598204721,-1, -1, 0, 0, 0, -1, 1, -2
1503598204729,0, 0, 0, 2, 5, 1, 0, 0
1503598204744,-2, -3, -2, -2, 0, -2, 1, -2
1503598204751,-1, 0, 0, -2, -3, -2, -3, -4
1503598204767,-2, 1, 0, 0, -1, -1, -1, 0
1503598204773,-2, 1, -2, -2, -2, -4, 0, 1
1503598204782,1, -3, 2, -1, -2, -1, -1, -1
1503598204789,0, 0, -3, -1, 0, 0, 1, -1
1503598204804,0, 0, -2, -2, 0, 0, -1, -2
1503598204812,-1, -1, -3, 0, -3, -1, 0, -1
1503598204820,-1, -1, -1, 0, -4, 0, -3, 0
1503598204834,0, -1, -1, -1, -6, -3, -1, -3
1503598204842,1, 3, -2, -1, -1, -2, 1, 1
1503598204849,-1, -1, -1, -1, -3, -1, 0, 1
1503598204864,-1, -2, -4, -4, -3, -1, 0, -2
1503598204872,-1, -3, -4, 0, 2, 1, 1, -1
1503598204880,0, -1, -1, 1, 1, -1, -4, -3
1503598204895,0, -3, -2, 0, 0, 1, -2, -1
1503598204902,-1, -1, -3, -1, -2, -1, 0, -1
1503598204909,-2, 1, 0, -1, -1, -2, -3, -1
1503598204924,-2, 1, 1, 1, 1, 1, 0, 1
1503598204933,0, -1, 2, 1, 1, -1, -1, -1
1503598204940,-1, -4, -2, -1, 2, -2, -3, -1
1503598204953,2, -1, -2, -1, -1, -4, -2, 0
1503598204962,0, 0, 4, 0, -2, 1, 0, -1
1503598204970,-2, -4, -2, -2, 0, 1, 0, -2
1503598204984,-2, -4, -7, -3, 0, -2, 0, 0
1503598204991,0, 2, 3, 1, 2, 3, 1, 0
1503598205000,-1, 3, 0, 1, 0, -1, -4, -1
1503598205013,-2, -2, 2, -3, -5, -3, 0, -1
1503598205021,-1, -1, -2, -1, 5, 2, 1, -3
1503598205022,0, 0, 2, -1, -1, -1, -1, -1
1503598205029,1, 0, -3, -1, -1, 1, -2, 0
1503598205044,0, -1, 0, -2, 0, -1, -1, -1
1503598205051,1, 3, 6, 2, 0, 0, -1, -1
1503598205060,0, -1, -2, 0, -1, -2, -2, 1
1503598205073,0, 0, 0, 0, -2, -2, -1, 0
1503598205081,-4, -6, -6, -1, 3, -8, -5, -2
1503598205089,-1, -3, -4, -2, 16, 16, 4, 0
1503598205104,-1, -1, 2, -4, -6, -3, -1, -1
1503598205111,-2, -1, 0, 0, -3, -5, -2, -2
1503598205120,1, 3, 1, 2, -2, 0, 1, -2
1503598205134,-1, 3, 4, 0, -4, -2, -1, -1
1503598205142,0, 0, -1, 2, 1, -2, -1, -2
1503598205149,-2, -1, 0, -1, -3, -3, -3, -1
1503598205164,0, -2, -2, -2, -2, 3, -1, -1
1503598205172,0, 1, 4, 1, -2, -3, 0, -1
1503598205180,-1, -3, 1, -3, -8, -5, 1, 1
1503598205193,-2, -3, -4, -1, 2, 1, -2, -1
1503598205202,1, -2, -1, 1, 7, 6, 4, -1
1503598205209,-4, -4, -9, -4, -1, -4, 0, -3
1503598205224,2, 14, 4, 1, -2, 2, -1, 2
1503598205234,0, 0, 3, 4, 1, 2, 1, 1
1503598205240,0, -1, -2, 0, 9, 5, -1, -2
1503598205253,-1, -2, -2, -1, -5, -4, -1, -1
1503598205264,-2, -4, 1, -3, -4, -2, -2, -1
1503598205270,0, -3, -3, -4, -1, -1, -1, -1
1503598205284,0, -2, -3, -2, -2, 0, -2, -2
1503598205292,-2, -2, -4, -1, -4, -3, -2, -1
1503598205303,-2, -5, -3, -2, -6, -1, 0, -2
1503598205313,4, 10, 16, 7, 1, 0, -3, 1
1503598205322,-1, 3, 0, 3, 1, -3, -1, 0
1503598205331,4, 26, 11, 3, 2, 1, -1, 0
1503598205344,-3, -10, -5, -6, -16, -7, -3, -2
1503598205351,-1, -12, -4, -5, -4, -2, 1, -1
1503598205360,-4, 1, 3, -9, -14, -11, -5, -3
1503598205374,-6, -14, -12, -4, 21, 9, 2, 0
1503598205382,-4, -10, -1, -1, 5, 2, -3, -3
1503598205389,-1, -5, -7, -2, -8, -5, -3, -2
1503598205404,-1, -2, -6, -2, 5, 2, 1, -1
1503598205412,-6, -6, -1, -6, -23, -16, -7, -4
1503598205420,-3, -1, -6, -15, 22, 6, -1, 2
1503598205435,-1, -4, -7, -2, -2, -5, -3, -1
1503598205442,-4, 3, -16, -17, -61, -13, -1, -5
1503598205449,-7, -25, -23, -17, 6, 1, -4, -9
1503598205466,-4, -22, -7, 4, 10, 4, 1, -1
1503598205472,5, 20, 9, 5, -5, -3, -3, 2
1503598205479,2, 11, 8, -2, 18, 8, 2, 0
1503598205493,2, 10, 20, 22, 19, 9, 7, 4
1503598205502,4, 8, -8, 4, -12, -11, -3, -2
1503598205509,-3, -25, -21, 0, 12, 9, 0, 1
1503598205524,-4, -14, -5, -1, 8, 4, -1, -1
1503598205532,-9, -27, -20, -11, -13, -12, -6, -8
1503598205547,-1, -10, -8, -1, 0, 6, 2, -4
1503598205553,5, -3, -5, 5, -6, -1, 0, 2
1503598205562,-4, -16, -24, 11, 12, -2, -1, 2
1503598205576,10, 44, 54, 12, -6, -1, 4, 4
1503598205584,1, -1, -10, 5, 7, 6, 2, 2
1503598205591,-8, -28, -21, -10, -4, -2, -1, -5
1503598205608,14, 84, 82, 24, 10, 13, 5, 7
1503598205613,0, 6, 10, 0, -1, -2, -1, 1
1503598205622,-8, -44, -46, -18, -17, -17, -6, -7
1503598205637,-4, -14, 1, -3, 11, 10, 2, -2
1503598205644,-9, -31, -36, -8, -6, -8, -7, -8
1503598205651,-1, -10, -2, -11, -19, -13, -3, -1
1503598205667,7, 12, 25, 10, -1, 3, 3, 2
1503598205681,4, 2, -5, 0, -4, 1, 0, 2
1503598205683,6, 25, 41, 6, -2, -3, 0, 0
1503598205696,-7, -17, -31, -7, 0, -2, -4, -7
1503598205704,-1, -14, -2, -2, 5, 3, -1, 0
1503598205712,-7, -9, -1, -7, -4, -3, -3, -4
1503598205727,3, -10, -30, -3, 2, -1, -1, -2
1503598205735,0, 4, -11, -4, 0, 3, -1, -2
1503598205742,-2, 12, 5, 1, -2, -4, -3, -2
1503598205756,8, 31, 19, 5, 1, 0, 0, 6
1503598205764,-1, -5, -28, -5, 3, 0, 0, -4
1503598205772,-11, -41, -18, -13, -12, -12, -7, -9
1503598205786,0, 16, 56, 11, 9, 7, 0, 4
1503598205793,-15, -49, -82, -24, -2, -2, 0, -7
1503598205805,3, 0, -12, 2, 5, 0, 6, 4
1503598205816,-21, -81, -50, -31, -19, -13, -10, -10
1503598205824,2, -2, -5, -3, -6, 0, -1, 0
1503598205832,32, 123, 127, 56, 3, -9, 1, 13
1503598205846,-14, -45, 10, 2, 26, 26, 14, 13
1503598205853,22, -16, 22, 11, 44, 49, 26, 17
1503598205862,-29, -89, -69, -46, -55, -38, -34, -32
1503598205883,-92, -78, -81, -52, -3, -3, -19, -69
1503598205885,18, -23, -29, -27, -2, 3, 2, 36
1503598205891,-3, 24, 6, 11, -23, -48, -33, -7
1503598205907,-11, -39, -44, 4, -45, -110, -27, -23
1503598205913,58, 60, 73, 36, 58, 48, 38, 72
1503598205922,-7, 11, 23, -8, -6, 36, 12, -34
1503598205936,58, 82, 61, -3, -7, 52, 22, 87
1503598205944,7, 36, 21, 10, -6, -7, -3, 8
1503598205951,-58, 4, -36, -9, 43, 12, -27, -116
1503598205968,-31, 29, 19, -2, 13, 15, -3, -59
1503598205973,52, 18, 18, 19, -28, -43, 5, 42
1503598205982,-10, -5, -10, -3, 29, 3, 9, -6
1503598205996,-9, -8, -29, -14, 5, 0, -7, -8
1503598206005,13, 19, 3, -13, -25, -32, -12, 25
1503598206019,-4, -9, -11, -11, -37, -27, 7, -3
1503598206027,26, 34, 30, 38, 39, 32, 9, 17
1503598206041,-12, -17, -27, -4, -18, -20, -8, -16
1503598206043,7, 30, 1, -4, -11, 2, -2, 9
1503598206056,-1, -12, -44, 1, -10, 12, 15, 12
1503598206064,0, -9, 1, 1, 0, 0, -2, 4
1503598206073,4, 8, 15, 1, -10, -6, 2, 1
1503598206096,-5, -5, 4, 1, 0, 3, -6, -3
1503598206103,3, 6, 7, 1, 14, 47, 17, 9
1503598206117,-4, -6, 1, -9, -16, -24, -3, -5
1503598206124,-1, 8, 5, 4, -12, -19, 0, 0
1503598206132,-4, -2, 5, 7, 6, -2, -12, -19
1503598206147,6, 3, 3, 3, 1, 5, 4, 16
1503598206153,-2, -2, 6, 5, 2, -2, 2, 3
1503598206162,0, -5, 0, 0, -2, 2, 0, -3
1503598206176,5, 3, 6, -2, -6, 0, 1, 3
1503598206184,-1, 0, 2, 16, 24, 12, 0, 2
1503598206192,1, 3, 1, 18, 7, 9, 2, 3
1503598206207,4, 4, 7, 17, 0, -9, 1, 1
1503598206213,-4, -4, -4, -8, -8, -8, -6, -2
1503598206222,3, 0, 1, 1, 2, 10, 2, 4
1503598206238,-1, -4, 0, 0, -3, 1, 0, 0
1503598206244,-6, 0, -5, -15, -15, -11, -6, -7
1503598206251,1, 0, 5, 19, 22, 9, 4, 4
1503598206267,-1, -3, -4, -4, 2, 8, 2, -2
1503598206273,0, 1, -1, -6, 3, -2, -5, -1
1503598206282,-3, 0, -6, -18, -23, -12, -3, -3
1503598206296,-1, -3, 1, 5, 13, 2, 0, 2
1503598206304,-2, -1, 0, 0, -4, -3, 1, -4
1503598206312,1, 11, 1, 8, 9, 6, 3, 1
1503598206326,-20, 8, 31, 7, 14, 2, -7, -8
1503598206333,1, -1, -2, -4, -15, -4, -4, 0
1503598206342,7, 10, 0, 8, 3, 0, 0, -3
1503598206356,-7, -6, -7, -20, -21, 1, -2, -4
1503598206364,7, -8, -13, 17, 10, -2, 3, 2
1503598206372,3, -3, -4, -13, -16, -11, -1, -1
1503598206387,8, 3, -4, -3, -7, 2, -4, -2
1503598206393,7, 0, -3, -13, -44, -11, -3, 0
1503598206402,-11, -17, -13, -10, 3, -3, 1, 4
1503598206416,10, -1, -3, 11, 25, 11, 3, 4
1503598206424,10, -12, -9, 3, -1, 1, 2, 0
1503598206432,11, 40, 54, 6, -5, -6, -7, -2
1503598206447,11, 2, 6, 13, 5, 8, 4, 0
1503598206453,9, -2, -8, 14, 24, 4, 1, 0
1503598206462,-4, 3, 1, -10, -17, 0, -11, 3
1503598206478,-10, -2, -6, 5, 15, 6, 0, 2
1503598206486,-7, -12, -19, -43, -39, -4, 8, -8
1503598206499,-16, -20, -9, -7, 29, -1, -15, -4
1503598206508,0, 6, 5, -1, 0, -21, -10, -4
1503598206513,-1, 3, 4, -3, -16, -3, 4, 2
1503598206514,-12, -11, -13, -17, -11, -1, 7, 3
1503598206529,9, 15, 0, -22, -36, -10, -7, -4
1503598206536,8, 14, 14, 8, -10, -8, 1, 5
1503598206544,-13, 18, 35, 9, 5, 0, 5, -2
1503598206558,-1, -18, -18, -37, -37, -17, -14, -10
1503598206559,8, 15, 7, 10, 3, 1, 2, -2
1503598206567,3, -13, -28, 4, 13, 3, 1, 0
1503598206578,-7, -10, -2, 11, 15, 7, -1, -2
1503598206589,-5, -12, -15, -17, -53, -11, -3, -5
1503598206596,8, 2, -4, -12, -24, -7, 2, 1
1503598206606,-10, 0, 5, 7, 3, 4, 2, 2
1503598206619,1, -2, -3, 1, -15, 5, 2, -7
1503598206626,3, -7, -3, 3, 19, 0, -2, 0
1503598206633,6, -13, -21, 7, 23, 12, 10, 6
1503598206649,-11, -22, -10, -4, 10, -3, -3, -3
1503598206656,14, 23, 28, -5, -17, -3, -3, -3
1503598206664,10, 27, 21, 41, 38, 16, 11, 16
1503598206679,-45, -34, -29, -48, -55, -26, -16, -17
1503598206687,3, -3, -8, 0, 11, 2, -4, -4
1503598206693,5, 0, -1, 2, -4, -6, -6, -6
1503598206709,10, 6, -2, -8, -1, -1, -1, 3
1503598206716,2, -4, 2, 21, 25, 9, 5, 1
1503598206724,-6, -5, 0, -11, -31, -15, -7, -5
1503598206742,12, 4, -2, 15, 18, 1, 1, 0
1503598206747,20, 11, 11, 18, 26, 11, 15, 20
1503598206754,7, -5, -10, -8, -11, -10, -3, 14
1503598206769,10, -1, 2, 0, 13, 0, -1, 6
1503598206776,7, 6, 4, -3, 0, 5, 2, -7
1503598206784,13, 13, 29, 74, 50, 28, 12, 12
1503598206799,-20, -10, -6, -1, 46, 12, -2, -4
1503598206808,-16, -6, -12, -25, -13, -2, 3, -9
1503598206822,-3, 1, 0, 7, -6, 0, -2, -6
1503598206829,-24, -18, -17, -23, -10, 1, -5, -12
1503598206838,3, 5, 15, -1, -12, 0, -6, 0
1503598206844,1, 2, -4, -7, -3, -18, -12, -11
1503598206860,-11, -5, -7, -9, 3, 7, 1, 2
1503598206866,-5, -5, -5, -14, -14, -9, -10, -9
1503598206882,-9, -2, -1, 0, -12, -10, -1, -5
1503598206889,1, -1, -11, -21, -19, -9, -5, 1
1503598206897,-9, -13, -18, -11, -19, -12, 0, 0
1503598206904,-4, -9, -18, -5, 5, 14, 0, -2
1503598206920,-6, -28, -42, -6, -4, -5, -5, 3
1503598206926,-10, -13, -8, -8, -9, -7, -12, -16
1503598206943,3, -4, -3, -1, 3, 2, 1, -9
1503598206949,-5, 7, 7, 1, -8, -4, 0, -3
1503598206957,-3, 10, 12, -1, -6, -4, -1, -3
1503598206964,3, 3, 10, 10, 1, 6, 6, -6
1503598206980,0, 3, 9, 0, 3, 1, 3, 0
1503598206986,8, 35, 45, 9, 13, 11, 14, 8
1503598207002,11, 25, 41, 15, 5, 4, 8, 9
1503598207010,-1, -8, -15, -6, -5, -9, -4, 5
1503598207018,-2, -1, 4, -1, 1, -1, 0, -1
1503598207024,-4, -9, -8, -3, -3, -6, -7, 2
1503598207040,-8, -7, -15, -7, -4, -5, -5, -13
1503598207047,0, -2, -4, -1, 2, 0, -1, -25
1503598207062,-14, -7, -1, -2, 0, -3, -2, 1
1503598207069,17, 14, 6, -3, -4, -4, -1, 7
1503598207078,13, 46, 37, 10, 2, 5, 4, 11
1503598207085,-3, 9, 23, 7, -7, -14, -11, 3
1503598207100,-5, -30, -31, -6, 0, 1, 0, 1
1503598207107,3, 6, 7, 3, 4, 5, 4, 9
1503598207122,-5, -12, -9, -7, -5, -5, -3, -10
1503598207129,-12, -18, -19, -7, 1, 1, 3, 1
1503598207137,9, -5, -10, -3, -2, 0, 0, -7
1503598207145,-3, -11, -7, -4, 0, -2, -2, 22
1503598207159,-7, 4, -5, 2, 7, 19, 25, 3
1503598207167,-7, -13, -5, 2, 5, 3, 3, -1
1503598207182,7, 6, 0, -1, -5, -5, -1, 11
1503598207183,13, 10, 0, -2, -4, -9, -14, -8
1503598207189,6, 11, 14, 6, 3, 1, -5, -4
1503598207197,-24, -6, 2, 3, 2, -2, -4, -1
1503598207204,7, 0, -10, -3, -1, -3, -3, -3
1503598207220,0, -3, 4, 4, 5, 1, -2, 1
1503598207226,-12, -8, -9, -2, -4, -3, -6, -8
1503598207244,4, -2, -6, -4, -5, -4, -5, 2
1503598207249,-3, -7, -14, -11, -7, -2, 1, -7
1503598207259,-2, -13, -9, -12, -7, -8, -7, -1
1503598207264,-7, -22, -39, -14, -2, 0, -1, -5
1503598207282,4, 2, 16, 9, 3, 0, -2, -1
1503598207286,6, -13, -13, -4, -3, 0, 2, 0
1503598207302,-7, -3, -11, -6, -4, -4, -7, -20
1503598207309,6, 8, 12, 8, 2, 1, 6, 17
1503598207324,-5, -10, -17, 6, 15, 2, -1, 0
1503598207325,0, 7, 20, 0, -3, 1, 0, 1
1503598207339,-16, -30, -24, -10, -4, 1, -2, 2
1503598207347,13, 11, 8, 2, 1, 0, -1, -9
1503598207362,-9, -16, -18, -10, -2, -3, -1, -2
1503598207369,3, 33, 48, 18, 7, 2, -2, -1
1503598207379,1, 1, -2, 0, 1, 6, 5, 3
1503598207384,-11, 1, 1, -2, -1, 0, 5, -13
1503598207399,8, 16, 19, 4, 1, 1, -2, 2
1503598207406,-17, 4, -19, -10, -8, -10, -11, -14
1503598207422,13, 13, 12, 10, 3, 2, 6, 6
1503598207429,-7, -33, -40, -15, -7, -6, -7, -6
1503598207437,3, 17, 12, 1, -3, -5, -3, 2
1503598207451,-4, -14, -15, -6, -2, 0, 1, -4
1503598207452,-1, 4, 13, 3, -2, 1, 1, 5
1503598207459,-4, 28, 33, 12, 5, 2, 3, 5
1503598207466,-2, -6, -7, -4, 2, 1, 1, 0
1503598207482,-3, -21, -30, -14, -5, -3, -5, -3
1503598207489,-1, -2, 6, 9, 5, 2, 0, 2
1503598207497,-4, -19, -34, -7, -3, -2, -3, -1
1503598207513,12, -19, -20, -14, -6, -3, -4, 6
1503598207521,6, -7, -8, -5, -9, -11, -6, -7
1503598207527,0, 6, 0, -4, -2, 0, 2, 0
1503598207542,2, 13, 14, 3, 0, 0, -1, 1
1503598207550,-8, -27, -16, -4, -2, -3, 0, 0
1503598207557,-5, -26, -9, -7, -1, 0, -2, -2
1503598207571,-35, -34, -22, -12, -2, 0, -3, -15
1503598207582,-12, -52, -36, -16, -6, 0, -2, -2
1503598207586,12, 9, 5, 3, 0, 0, -1, 1
1503598207602,-1, 17, 20, 5, 1, 2, -1, -6
1503598207609,-1, 11, 3, -2, -5, -4, -2, -2
1503598207619,2, -8, -13, 12, 10, 5, 5, 5
1503598207632,8, 10, 6, 3, 1, -1, -2, 5
1503598207639,-4, -10, -4, -10, -7, -4, -1, -2
1503598207640,-3, 9, 4, 0, -4, 0, -3, -2
1503598207647,26, 8, -1, -8, -7, -5, 3, 20
1503598207662,-5, -1, -3, -11, -6, -3, -4, -2
1503598207669,-6, 4, 12, 4, 2, -1, -6, -13
1503598207677,4, 12, 10, 5, -1, -2, 4, 7
1503598207692,1, 11, 9, 11, 7, 2, 0, -1
1503598207700,-1, 19, 20, 0, -8, -3, 0, -1
1503598207707,-3, -7, -17, -1, 5, 3, 4, 1
1503598207722,0, -7, -18, -11, -5, -7, -6, -7
1503598207729,-1, -2, 0, -1, 2, 2, 0, 3
1503598207741,2, -2, -4, 1, 1, 0, -2, -5
1503598207752,-6, 5, 12, 22, 17, 6, 2, -1
1503598207766,4, 2, -9, 0, 3, 0, 3, 1
1503598207768,3, 8, 8, -7, -7, -6, -3, -5
1503598207783,10, 3, 2, 1, 0, 1, 1, 7
1503598207790,-2, 2, 0, -4, -23, -13, -9, -9
1503598207797,-6, -1, 5, 0, -1, -3, -1, 3
1503598207812,-3, 18, 24, 5, 3, 4, 5, -2
1503598207820,-6, -19, -2, -4, -2, -1, -4, -14
1503598207827,-1, 6, -5, -1, 0, -1, 0, -2
1503598207842,-3, -6, 2, 1, 3, 1, 3, 5
1503598207850,2, -7, 3, 0, 3, 2, -2, 2
1503598207857,-3, 5, 2, 7, 6, -1, -1, 0
1503598207871,-5, -13, -17, -16, -13, -6, -2, -1
1503598207872,0, 3, 1, 19, 18, 6, 0, -1
1503598207883,0, 8, 1, 3, -2, -1, -3, -4
1503598207887,-2, -8, -13, -17, -15, -6, -3, 2
1503598207902,0, -8, -7, 9, 20, 13, 5, 5
1503598207909,-1, -4, 5, -5, -2, -2, -3, 0
1503598207918,2, 8, 9, 5, 4, 3, 2, 3
1503598207932,-10, -16, -19, -9, -7, 2, 5, 9
1503598207940,-3, 0, 4, -7, -6, -5, -1, -3
1503598207947,-11, -26, -71, -17, -10, -7, -6, -9
1503598207949,13, 27, 51, 25, 7, 2, 3, 4
1503598207963,1, 28, 22, -1, -7, -3, -2, -4
1503598207969,-13, 1, -9, -5, 0, -1, -2, -9
1503598207977,1, -3, -1, -5, -7, -4, -2, -4
1503598207992,8, -5, -9, -2, -1, -4, -3, 1
1503598208000,-4, -15, -16, -13, -13, -4, 0, -1
1503598208007,-2, -5, -9, -5, -6, -4, -4, -4
1503598208023,5, 0, -4, 0, 6, 7, 1, 1
1503598208029,-8, -3, -1, 1, 6, 6, 3, -5
1503598208037,-10, -1, 1, -1, -5, -5, -3, 0
1503598208055,5, 11, 6, -4, -4, -4, -8, 0
1503598208060,5, 14, 16, 9, 0, 0, 0, 2
1503598208066,-1, -2, 3, 6, 7, 2, 2, 1
1503598208085,3, -2, -4, -2, -3, -1, -3, -1
1503598208090,-3, -1, -6, 10, 21, 6, 2, -2
1503598208097,0, -5, -7, 0, 2, -3, -3, -2
1503598208112,5, 0, -2, -5, -10, -3, 1, 8
1503598208120,-8, -4, -6, -5, -3, -5, -4, -1
1503598208127,3, -4, -11, -5, 0, -1, 0, 0
1503598208142,-3, -2, -8, -10, -9, -3, 3, -1
1503598208152,-5, -5, -3, -5, -5, -5, -5, -8
1503598208157,16, 29, 27, 15, 7, 3, -1, 3
1503598208172,7, 23, 31, 17, 12, 5, 5, 6
1503598208180,-10, 13, -11, 6, 1, 1, 2, -2
1503598208187,-10, -4, -14, -6, -10, -4, -5, -7
1503598208202,-3, -24, -26, -7, 0, -4, -2, -1
1503598208209,0, -6, -6, 6, 10, 8, 2, 1
1503598208225,1, -2, 4, 0, 1, 1, 1, 1
1503598208231,-1, -17, -13, 13, 45, 14, 3, 7
1503598208239,1, -2, -8, 3, 8, 3, 0, -3
1503598208246,-4, -22, -24, -19, -22, -7, -3, -5
1503598208262,10, 31, 80, 24, 7, 4, 4, 4
1503598208269,-4, 14, 12, 0, -14, -5, -4, -4
1503598208277,-10, -17, -24, -16, -23, -7, -6, -3
1503598208292,-2, 0, 2, 28, 31, 10, 0, -1
1503598208293,5, -2, 5, 1, 2, -1, 4, 10
1503598208299,-3, 8, 2, -6, -8, 0, -2, -3
1503598208300,3, -6, -12, -8, -11, -3, 5, 5
1503598208306,-2, -4, -16, -12, -14, -6, -8, -13
1503598208322,7, -21, -22, -16, -1, -5, -6, -8
1503598208329,8, -11, -22, -16, -19, -8, -5, -2
1503598208344,-8, -3, 11, 14, 16, 2, -2, -5
1503598208353,-1, 3, 9, -18, -21, -5, -3, 0
1503598208360,-1, -7, -17, 15, 51, 20, 6, 3
1503598208374,2, 3, -2, -3, -3, -3, -2, 7
1503598208382,-10, 2, 5, -6, -19, -10, 0, -3
1503598208389,7, 38, 41, 17, 5, 4, 6, 1
1503598208405,-1, 0, 4, -12, -18, -8, -5, -7
1503598208411,-11, -25, -34, -6, -2, -4, -4, -8
1503598208419,-2, 11, 17, 6, 1, 1, -1, 1
1503598208440,3, -13, -12, -6, -3, -1, 1, 8
1503598208443,4, 1, 7, 8, 16, 8, 2, 2
1503598208457,-11, -3, -4, -3, 1, 0, -2, -10
1503598208464,-2, 12, -1, -3, -11, -4, -2, 3
1503598208471,-4, 0, 5, -4, 2, -4, -7, -6
1503598208479,7, 7, 0, -4, -5, 0, 2, 4
1503598208495,0, -12, -15, -4, -2, -6, -1, 0
1503598208502,0, -3, -8, -2, -12, -2, -3, -11
1503598208509,3, 3, -6, -10, -12, -3, -1, -13
1503598208524,-3, -2, -9, 6, 0, 0, -1, -9
1503598208531,-3, -10, -8, -5, -5, -2, 0, -9
1503598208539,-5, -8, -8, -17, -21, -8, -6, -3
1503598208554,8, 5, 12, 21, 14, 10, 8, 20
1503598208563,12, 4, 3, 2, -3, -4, 0, 7
1503598208569,-13, 1, 12, 20, 18, 6, 3, -3
1503598208587,1, -3, -5, -3, 2, 2, -3, 4
1503598208592,3, 5, -3, -18, -15, -7, -7, -1
1503598208607,2, 24, 15, 4, -4, -3, -2, -3
1503598208614,3, -4, -9, -6, -5, -1, 1, -3
1503598208622,-3, -7, -6, 1, 8, 0, -2, -6
1503598208629,0, -2, 8, 7, 5, 5, 5, 4
1503598208644,-5, -12, -17, -5, 6, 1, -2, 3
1503598208654,-9, -2, 2, -5, -11, -6, -5, -3
1503598208660,-6, -10, -1, -2, 3, 3, 2, 2
1503598208674,9, 37, 42, 6, 0, 2, 0, 5
1503598208682,1, 0, -5, 0, 4, 3, 3, 6
1503598208689,-5, -5, 1, -1, 0, 0, -2, -1
1503598208690,-7, -19, -19, -12, -5, -5, -4, -1
1503598208704,-12, 1, 8, 3, -4, -3, -4, -9
1503598208712,-2, -2, -1, -3, -4, 0, 0, 4
1503598208723,-15, -16, -8, -3, 1, -2, -4, -15
1503598208734,-7, -11, -13, -9, -7, -2, -3, -6
1503598208742,4, -2, -3, -7, -11, -4, -1, 3
1503598208749,2, -4, -5, -7, -3, -4, -6, -3
1503598208764,1, -2, 0, -1, 3, 2, -1, -3
1503598208771,4, 4, 14, 9, 5, 3, 4, 6
1503598208780,-2, -6, 1, 0, -4, -4, -5, -3
1503598208794,-4, 6, 7, 10, 6, 1, 1, -4
1503598208802,5, 19, 14, 7, 1, 1, 4, 4
1503598208809,7, -2, -7, 1, 4, 2, -2, 9
1503598208825,8, -2, -4, -1, 0, -1, 3, 9
1503598208832,-3, -3, -2, 4, 2, -1, -1, -7
1503598208840,0, -4, -5, -6, -1, -1, 1, 1
1503598208856,0, -3, -2, -2, -3, -5, 0, -1
1503598208862,3, -5, -7, -5, -1, -4, -1, -1
1503598208869,0, -3, -5, -3, 6, 8, -2, -3
1503598208884,-2, -2, -7, -2, -3, -4, 0, -7
1503598208892,5, 5, -9, -6, -5, -3, -1, -3
1503598208900,-7, -7, -2, -3, -3, -2, -1, -2
1503598208914,-7, -14, -16, -7, -4, -5, -6, -8
1503598208923,-8, 5, 13, 5, 3, 4, 6, 8
1503598208929,0, -4, -6, -6, -13, -7, -2, -2
1503598208944,4, 1, -3, -4, -14, -6, -5, -1
1503598208951,14, 5, 5, 5, 0, 1, 1, 7
1503598208962,-1, 0, -1, -3, -7, -3, -2, 3
1503598208974,-3, -1, 2, 1, -1, -3, -1, -4
1503598208982,-2, 3, 9, 1, -8, -2, 1, 0
1503598208983,1, -1, -2, 2, 7, 5, 0, -4
1503598208992,-2, 1, 0, -5, -2, -1, -1, -2
1503598209004,5, 12, 17, 11, 12, 3, -2, -3
1503598209012,-2, -3, 3, 7, 15, 13, 6, 4
1503598209020,-2, 1, -5, 9, 15, 3, 2, 7
1503598209034,-11, -4, -2, -4, -4, -3, 6, 4
1503598209042,-2, -9, -8, -1, 16, -1, -8, -7
1503598209049,13, 1, -2, -4, -6, -1, -2, 10
1503598209064,-6, -8, -12, -7, -13, -3, 1, 0
1503598209071,3, 9, 6, 5, 0, 1, -3, -2
1503598209072,-9, -5, 4, 0, 4, -4, -2, -7
1503598209080,11, 14, 20, 5, -3, -2, 1, 3
1503598209094,-1, 2, -6, -6, -5, -4, -3, -1
1503598209102,-19, -10, -8, 2, 2, 1, 2, -6
1503598209109,-2, 0, -5, -1, -2, -3, -4, -4
1503598209124,11, -13, -29, -14, -8, -4, -1, -2
1503598209132,-6, 4, -8, -2, -2, -2, -5, -18
1503598209139,-14, -7, 3, -3, -6, -3, -2, 16
1503598209154,-10, -5, -1, -2, -3, -1, -1, -6
1503598209162,-1, 3, 3, -2, -3, 0, -2, -11
1503598209169,1, 9, 13, 6, 1, -1, -3, 3
1503598209184,5, -9, -7, -5, -4, 0, 1, 0
1503598209192,8, -2, 7, 34, 45, 16, 7, 6
1503598209200,-16, -12, -9, -3, 2, 5, -4, -19
1503598209214,11, -1, 0, -11, -19, -14, -4, 3
1503598209222,-7, -22, -50, -14, -5, -5, -1, -3
1503598209229,-4, -15, -8, -6, -7, -3, -4, 11
1503598209244,-19, -22, -15, -13, -11, -8, -5, 23
1503598209251,-2, 4, 4, 3, -2, 0, 1, -10
1503598209260,3, 5, 13, 7, -2, 0, 2, -3
1503598209274,-1, 14, 32, 2, -2, 0, 1, 1
1503598209282,14, 43, 40, 10, 3, -1, -3, -7
1503598209296,-2, -17, -29, -13, -8, -2, -4, -7
1503598209304,12, -4, -1, -1, -2, -4, 0, 25
1503598209311,-7, 3, 0, -2, -6, -9, -16, -22
1503598209327,17, 6, 7, 0, 6, 5, 4, 9
1503598209334,5, 2, -2, 1, 0, -7, 0, 13
1503598209342,-3, 4, -1, -3, -1, 2, -1, -12
1503598209356,-11, -3, -3, -6, -2, 2, -4, -19
1503598209364,3, 3, 7, 3, -1, 1, 1, -3
1503598209372,7, 3, -1, -3, -4, -1, 5, 13
1503598209386,-2, -3, -4, -3, 0, 1, 2, -4
1503598209387,4, 8, 10, 7, 2, 1, 0, -1
1503598209394,-6, 0, 2, 1, 0, -1, -6, -6
1503598209395,1, -5, -5, -7, -4, 0, -3, -12
1503598209402,-20, -8, -7, -1, 0, -1, -7, -44
1503598209416,6, 19, 20, 4, 1, 1, 7, 15
1503598209425,2, -5, -4, 3, 7, 6, 1, 9
1503598209432,-5, -14, -9, 1, 3, 1, -1, -8
1503598209447,-10, -9, -8, -11, -11, -11, -6, -5
1503598209454,-6, -7, -2, -1, 10, 3, -1, 0
1503598209463,4, 1, -2, -4, -3, -3, -4, -1
1503598209476,-3, 2, -4, 1, -7, -2, -3, -4
1503598209484,-9, -9, -8, -4, -2, -2, -5, -31
1503598209494,2, -8, -11, -3, -3, 0, 3, 7
1503598209507,0, -3, 5, 0, -2, 0, 3, -6
1503598209514,1, 3, -2, -4, -2, 0, -5, -5
1503598209522,-3, 3, 3, 1, -2, -3, -1, 4
1503598209537,3, 6, 1, -1, -2, -2, -3, 10
1503598209544,6, 4, 3, 0, 2, 1, 1, 9
1503598209552,-3, -2, -2, -4, -4, -2, 2, -8
1503598209567,-3, -3, 0, 5, 18, 10, 7, 7
1503598209574,-9, -7, -7, -3, -3, -3, -5, -11
1503598209582,-7, 3, 6, 1, -6, -5, -6, -20
1503598209596,1, 3, 8, 7, 2, 4, 1, 5
1503598209605,-2, -8, -8, -4, -5, -2, -7, -12
1503598209611,-2, -11, -8, -5, -5, -2, 0, 0
1503598209628,4, -2, -5, -4, -4, -3, 4, 13
1503598209635,-3, 1, -5, -1, 0, -1, 0, -2
1503598209642,22, 11, 2, 0, 1, 3, 12, 35
1503598209657,-3, -4, 0, 1, -1, 2, 3, 3
1503598209665,-5, 3, 5, 1, -1, -5, -5, -4
1503598209672,11, 3, 0, 1, 2, 1, 6, 17
1503598209687,-1, 5, 3, 0, -4, 0, 1, -4
1503598209696,-2, 2, -1, 3, 0, 3, 9, 5
1503598209703,-5, -16, -10, -8, -3, 0, -4, 0
1503598209716,-3, 1, 6, -1, -1, -2, -4, -6
1503598209724,-5, -4, -1, -1, -1, 0, 0, -9
1503598209732,-6, -20, -14, -8, -2, -1, -2, 1
1503598209733,1, 15, 9, 5, 2, 0, -2, -11
1503598209747,-2, 3, 3, 4, -1, -3, -3, -6
1503598209754,1, -5, -6, -5, -3, -1, -3, 5
1503598209763,6, 1, -1, -1, 0, 0, -1, 10
1503598209776,-3, -3, -1, 0, 3, 3, -2, -1
1503598209784,0, 3, 4, 3, -1, -1, 2, -2
1503598209792,-3, -3, -3, -3, -4, -3, -3, -11
1503598209807,4, 8, 6, 0, 1, -1, -4, 2
1503598209814,-6, -10, -7, -4, -1, -1, -1, -9
1503598209822,-3, -6, -6, -3, -3, -2, -3, 1
1503598209837,-2, -2, 2, -1, -1, 0, -1, 10
1503598209844,1, 12, 15, 3, 3, 2, 2, 3
1503598209858,1, -6, -6, -3, -1, -3, -2, 0
1503598209866,-5, -3, -1, -3, -2, 0, -1, -6
1503598209867,2, 1, 1, 4, 3, 0, 0, -1
1503598209881,0, -1, 0, -3, -3, -2, -2, -4
1503598209883,1, 0, -1, 1, 0, -1, -1, 3
1503598209899,-1, 2, -2, 1, 0, 0, 0, 6
1503598209906,-2, -6, -9, -5, -2, -3, -1, -5
1503598209911,-12, -1, -2, -6, -4, -5, -6, -14
1503598209926,-7, -8, 2, 0, 12, 0, -3, -6
1503598209934,-4, -8, -4, 0, 1, 0, 0, -4
1503598209942,-1, -5, -8, -2, -6, -3, 0, 1
1503598209956,5, 9, 13, 8, 1, -1, 3, 6
1503598209964,1, -2, -2, -3, -2, 2, 0, 4
1503598209972,4, 0, -6, -2, -5, 0, 2, 3
1503598209987,-4, 1, -2, 0, -3, -1, -1, -3
1503598209995,2, 2, 1, -2, 3, -1, -3, 0
1503598210002,0, -13, -13, -4, -3, -1, 0, 2
1503598210016,6, 15, 5, 3, 3, 1, 4, 5
1503598210024,1, -2, -2, 2, -2, 1, 2, 2
1503598210031,1, -1, -4, -1, -3, 0, -2, -6
1503598210046,-3, 0, -2, -2, -4, -3, -1, 10
1503598210054,3, -2, -3, 0, 0, -1, 2, 7
1503598210064,2, 4, 2, 0, -1, -2, -2, -1
1503598210076,-4, -5, -4, -3, -1, 0, 0, -5
1503598210084,-1, 7, 6, 3, 1, 0, -1, -4
1503598210091,-1, -5, -5, -4, -3, 0, 1, -5
1503598210106,-2, 1, 0, -3, -3, 1, 2, -4
1503598210114,0, 9, 18, 2, 0, -1, -1, 4
1503598210122,1, 1, -1, -3, -2, -1, 0, -6
1503598210136,-2, -4, -4, -1, -1, -1, 0, 0
1503598210144,-3, -2, 0, -2, -4, -1, -2, 0
1503598210151,-2, -4, -1, 0, 0, -2, -5, -14
1503598210166,-5, -7, -5, -1, -1, -2, -2, -10
1503598210174,-6, -3, 0, -1, -2, -2, -2, -2
1503598210189,-4, -6, -9, -5, -4, 1, 1, 3
1503598210196,0, 0, 0, -2, -1, 0, -1, 2
1503598210204,-1, -1, 2, -1, 1, 0, -1, -4
1503598210218,-1, 1, 0, 0, -1, 0, 1, 12
1503598210226,5, 4, 7, 0, 1, 1, 1, 11
1503598210234,-5, -5, -7, -1, 1, 3, 1, -4
1503598210249,4, 4, 4, 2, 0, -2, 2, 7
1503598210256,-7, 1, 1, 3, 0, -5, -7, -15
1503598210265,9, 4, 1, 0, 0, -1, 1, 4
1503598210278,-2, -5, -3, -3, -1, -1, 1, 1
1503598210286,-1, -7, -3, -3, 0, -3, -6, -2
1503598210294,8, 0, -2, 0, -1, 0, 1, -1
1503598210309,-2, -1, 0, 1, 2, 3, 3, 0
1503598210316,0, 0, 0, 0, 0, -2, -4, -4
1503598210324,-3, -1, 2, 1, -1, -2, -2, -5
1503598210338,0, -3, -2, -3, -2, -1, -1, 18
1503598210346,-2, -2, -4, -4, -5, 1, 2, -3
1503598210354,12, -3, -1, 0, -8, 2, 7, 25
1503598210370,-6, -1, -2, -1, -5, -3, -4, -3
1503598210376,-3, 1, 4, 1, 0, -4, -4, -15
1503598210384,-9, -1, 0, -3, -13, -78, -6, -9
1503598210399,1, 13, 5, 1, -12, -128, -3, 4
1503598210406,-2, -5, -7, -4, 4, -92, -1, -4
1503598210414,0, -4, -4, -2, 4, -20, -2, -8
1503598210429,0, 4, 3, -1, -2, 57, -2, 0
1503598210437,-4, -3, 0, 3, 9, 101, 3, 2
1503598210444,1, 1, 1, 0, -6, 61, 0, -2
1503598210458,-8, -5, -4, -6, 0, -2, -4, 3
1503598210466,4, 1, 1, 0, 7, 4, 2, 0
1503598210475,-2, 0, 1, 1, 3, 28, -2, -4
1503598210489,4, 2, -10, 0, 2, 39, -1, 2
1503598210496,-2, -6, -5, -4, 1, 32, 0, -5
1503598210505,-2, -8, -8, -3, 3, 21, -3, -3
1503598210518,3, 5, 2, 1, 1, 11, -1, -1
1503598210526,-1, 5, 7, 3, 11, 9, 3, 3
1503598210534,0, -3, -2, -2, 1, -20, 1, -4
1503598210549,-1, 2, 2, 2, 3, -12, -2, 1
1503598210557,-4, -4, -4, -3, -2, 10, -2, 2
1503598210564,4, 1, 4, 2, -1, 12, 2, 16
1503598210578,1, -16, -14, -5, -2, 11, -4, -24
1503598210586,-5, -5, 2, -2, -1, 9, -3, -6
1503598210594,-1, 1, 0, 1, -2, 3, -3, 0
1503598210610,-2, -6, -14, -2, -3, -2, -2, -7
1503598210616,-1, 13, 12, 1, 0, -3, 3, 2
1503598210624,1, -2, -3, -5, -2, -8, -2, 1
1503598210640,-2, 3, 2, 0, 0, -6, -3, -6
1503598210646,-6, -12, -4, -2, -2, -9, -2, -6
1503598210654,2, 17, 8, 2, 0, -3, 3, 2
1503598210669,-9, -5, -8, -6, -4, -6, -3, -14
1503598210677,-3, -1, -2, -1, 0, -3, 0, -1
1503598210685,7, 6, 7, 1, 1, -4, 1, 2
1503598210698,0, -5, -6, -5, -3, -4, -2, -1
1503598210706,-5, 1, 0, 1, -2, -2, 0, -6
1503598210707,12, 4, 4, 1, 0, -3, 2, 9
1503598210714,2, -3, -5, -3, -3, -5, -3, 3
1503598210729,-5, 0, 3, -3, -3, -3, -3, -4
1503598210737,-4, -4, 0, -1, -1, -3, 0, 0
1503598210744,1, -2, -2, -1, -2, -4, 1, 6
1503598210745,-7, 2, 2, 1, -3, -5, -2, -6
1503598210758,1, -2, -4, -2, 1, 0, 0, -6
1503598210766,-4, 1, 0, 0, 0, -5, -3, -2
1503598210767,-1, -3, -1, 0, 0, -2, 0, -3
1503598210774,0, -2, 0, 1, 0, -2, 0, 2
1503598210789,-4, -3, -2, 3, -2, -2, -4, -3
1503598210796,-3, -4, -2, -2, -2, -4, -1, 1
1503598210805,-1, -4, 1, 1, 2, -1, 1, -1
1503598210818,-3, -1, -2, 0, 0, -1, -1, -5
1503598210826,1, 3, -3, -3, -1, -1, -4, -1
1503598210836,-5, -9, -6, -2, -2, -2, 1, -1
1503598210849,3, -2, -1, 0, -2, -2, -1, 3
1503598210856,-3, -5, -3, -2, -1, -1, -1, 0
1503598210864,-1, 4, 6, 5, 3, 0, -2, -3
1503598210878,3, 4, 2, -2, -2, -1, 1, 3
1503598210886,1, 5, -1, -2, -1, 0, 4, 4
1503598210894,2, -1, -2, 1, -1, -3, 0, 0
1503598210909,-2, -5, -7, -4, -2, 0, 1, -1
1503598210916,1, 2, -2, 0, -1, -1, -3, -4
1503598210924,-1, -1, 1, 1, -2, -1, -3, -1
1503598210940,0, 1, 4, 2, 1, 1, -3, 2
1503598210946,0, 8, 8, 1, 0, -4, 0, -1
1503598210954,-3, -3, 0, 1, -3, -1, -1, -1
1503598210970,1, 2, 5, 1, -1, -1, -1, 2
1503598210977,-1, -7, -7, -3, -2, -3, -3, -2
1503598210985,-1, -14, -15, -3, -3, 0, 1, 1
1503598210998,1, 2, 4, 2, 0, 1, 2, 3
1503598211007,0, 1, 2, 0, 3, 1, -1, -3
1503598211014,-1, 1, 0, 0, -2, -3, -2, 0
1503598211029,0, -2, -1, -2, -3, -1, -3, -1
1503598211040,0, 1, 2, -1, -2, 0, 1, -2
1503598211046,-2, -4, -5, -4, -3, -3, -1, -1
1503598211058,0, 6, 6, 1, 2, 0, 2, 1
1503598211066,0, 3, 3, -3, -1, -3, -3, -3
1503598211074,-1, -2, -1, -3, 0, -1, -1, 0
1503598211089,-2, 2, 1, -2, 0, 3, 1, 0
1503598211097,-1, -3, -3, -1, -1, -3, 0, 1
1503598211109,1, 2, -5, -2, -1, -1, -2, -1
1503598211118,-2, 4, 3, 0, -1, -1, -2, -2
1503598211126,-3, -2, -4, -1, -2, -2, -1, -1
1503598211141,0, -3, -2, -1, 0, -1, 1, 0
1503598211149,-1, 0, 1, 0, 0, 0, 0, 0
1503598211163,0, -2, -2, -1, -1, -2, 0, -2
1503598211178,0, -2, -3, -2, -1, -1, 0, -1
1503598211186,2, 8, 5, 4, 0, 1, 1, 0
1503598211201,0, 1, 0, 0, -1, -1, 0, -1
1503598211209,-4, -8, -7, -2, -3, 0, -2, 0
1503598211216,-1, -1, -2, 0, 0, 1, 0, -1
1503598211232,-1, -5, -3, -3, 0, -2, 0, -1
1503598211247,0, 1, 0, 1, 1, -2, -2, -3
1503598211261,-1, -4, -6, 1, -1, 3, 1, 0
1503598211269,1, 3, 10, 3, 0, 0, 0, -3
1503598211277,0, 0, 8, 1, -1, -2, 1, -1
1503598211291,-3, -6, -6, -5, -4, -3, -1, -2
1503598211298,-1, 0, -4, -8, -13, -6, -4, -3
1503598211307,-1, -2, -2, -2, -2, 0, 1, 0
1503598211321,-3, -8, -10, -7, -3, -1, -2, -2
1503598211329,-4, -6, -4, -3, 1, 1, 1, -1
1503598211336,0, 0, -3, 0, 1, -1, -2, -2
1503598211351,0, -5, -5, -1, 3, -1, 0, 2
1503598211358,-3, -4, -1, 1, 4, -2, 0, -5
1503598211366,0, 4, 6, 1, -1, -2, -2, -1
1503598211381,1, 7, 4, 0, 1, 0, -4, 2
1503598211389,-3, 0, 1, 0, -1, -2, -3, -2
1503598211396,-2, -1, -2, 0, 2, 1, 0, -1
1503598211411,2, 2, 10, 5, -3, 0, -1, -1
1503598211426,-1, -2, -4, -5, -3, -1, -3, -1
1503598211427,1, 2, -7, -3, 1, -1, 0, 2
1503598211444,0, -7, -12, -5, -2, -4, -3, 1
1503598211449,-3, -8, -11, -4, -2, -3, -3, -2
1503598211456,-2, -7, -5, -1, 5, 0, -1, -2
1503598211473,1, 3, 1, 1, -1, 0, 0, 0
1503598211478,-1, 2, 4, -1, -10, -3, -3, -2
1503598211486,-1, -5, -5, 0, 3, 0, 1, 1
1503598211501,1, 6, 10, 3, -2, 1, 1, 0
1503598211510,-2, -9, -9, -3, -2, 0, -3, -4
1503598211516,0, 5, 5, 4, 4, 1, 1, 0
1503598211531,3, 10, 18, 5, 1, 1, 4, 1
1503598211538,-2, -2, -4, -3, 1, 2, -1, -3
1503598211546,-1, -3, -4, -2, -4, -5, -4, 0
1503598211561,1, -3, 1, 0, 1, -1, 1, 4
1503598211569,0, 2, -2, -3, -5, 0, 0, 0
1503598211577,1, 0, 4, -2, -3, -3, -2, -2
1503598211591,0, -2, -1, 3, 4, 1, 0, -1
1503598211598,-1, 0, -1, -2, -2, 0, 0, 0
1503598211608,0, -1, -2, -3, -2, 0, -1, 1
1503598211621,-3, -4, -7, -2, 1, -1, 1, 1
1503598211629,0, 8, 1, 0, 0, -1, -2, -2
1503598211638,0, -1, 1, 7, -3, -1, 0, 0
1503598211651,-4, -11, -10, -3, 2, -1, -4, -6
1503598211658,-1, 1, 4, 2, 6, -1, -2, 0
1503598211666,0, 1, 5, 1, -4, -2, -1, 2
1503598211681,-1, 5, 0, 2, -1, 2, 3, 0
1503598211689,-3, 9, 9, -4, -5, -2, -1, -1
1503598211696,-1, -1, -4, -3, 1, -2, 0, -3
1503598211712,-1, -3, -6, -4, -6, -2, 1, -2
1503598211718,-1, -1, 1, -3, -3, -2, -4, -5
1503598211726,-1, -8, -1, 0, -1, -1, 1, 0
1503598211743,0, 3, 7, -2, -1, -2, -2, 0
1503598211749,-2, -8, -9, -5, 10, 2, 2, 0
1503598211756,1, -2, -9, -2, 0, 2, 2, 1
1503598211771,-1, 0, -2, -1, -4, -3, -4, -1
1503598211780,-1, -4, -6, 0, -3, -3, -7, -5
1503598211786,2, 3, -2, -2, -7, -4, -2, -2
1503598211802,-1, 2, 8, 4, 3, 4, 2, 3
1503598211809,-1, -2, -6, -3, -4, -1, 0, -2
1503598211810,1, -1, 5, 1, 3, 5, -1, -1
1503598211825,4, 7, 0, 3, -1, -2, 3, 0
1503598211832,-1, -3, -4, 3, 4, 1, 3, 2
1503598211840,-4, -6, -6, -4, 6, 0, -1, -3
1503598211847,2, 7, 7, 2, -1, -1, -1, 0
1503598211862,-3, -1, 0, -4, -6, -4, -2, 1
1503598211870,-1, 0, 12, 6, 17, 4, 0, -4
1503598211885,-1, -4, -3, -2, 8, 4, 0, -1
1503598211891,-2, -5, -9, -7, -9, -1, -3, -1
1503598211901,-1, 0, 2, 1, -3, -1, 2, -1
1503598211906,-1, -3, -6, -7, -8, -1, 2, 1
1503598211922,-2, -3, -1, 2, 1, 1, 1, 0
1503598211929,0, 1, -2, 3, 5, 3, -2, -1
1503598211945,0, 1, 9, -3, 0, 0, -2, -3
1503598211952,-2, -2, -2, -3, -1, -1, -4, -4
1503598211959,-2, -4, -6, -4, -7, -4, -3, -3
1503598211967,1, -2, -3, 1, -1, 0, 1, 2
1503598211982,1, 3, 4, 3, -2, 0, 1, 1
1503598211983,0, -6, -5, -2, 2, -2, -2, -4
1503598211989,1, 5, 5, 5, -2, -4, 2, 2
1503598212005,-2, -3, -5, -6, -8, -4, -4, -1
1503598212012,-4, -8, -9, -6, -5, -2, -2, -4
1503598212019,1, 3, -2, -3, -2, 2, 3, 3
1503598212026,0, 4, -2, 2, -1, -1, -1, 1
1503598212044,-2, -1, -3, 0, -5, 2, 1, 0
1503598212049,-3, -4, -6, -6, -4, -1, 0, 2
1503598212064,-1, 0, 1, 2, 2, -2, -3, -3
1503598212071,-1, 5, 4, 14, 8, 1, 2, 2
1503598212080,2, 3, 5, 7, -2, -2, 1, -1
1503598212094,-3, -6, -7, -12, -13, -8, -6, -7
1503598212102,4, 9, 18, 6, -2, 1, 0, 2
1503598212109,0, -2, -2, -2, 1, 1, -2, -3
1503598212124,0, -1, 0, 1, 8, 1, -3, -2
1503598212131,-2, -3, 0, -2, -3, 0, -1, -4
1503598212139,-1, 0, -2, 3, 16, 6, 4, 2
1503598212154,2, 0, 2, 3, -2, -2, 1, -1
1503598212162,-1, 0, 0, -3, -9, -5, -5, -3
1503598212169,-2, 2, 1, 2, 1, -4, -2, -1
1503598212184,-1, -3, -4, -4, -10, 0, 0, 0
1503598212191,-1, -2, -4, -12, -10, -4, -5, -5
1503598212199,-4, -3, 0, -4, -7, -8, -6, -3
1503598212214,4, 15, 32, 5, 0, 1, 2, 3
1503598212222,-1, 0, -5, -1, 2, 1, 1, -2
1503598212229,-3, -4, -10, -6, 0, -1, 1, 1
1503598212245,-1, -2, -4, -3, -3, 1, -1, -2
1503598212252,-1, -5, -6, -9, 13, 5, 2, 1
1503598212259,0, 1, 0, 3, -5, -3, -2, -2
1503598212274,-3, -3, -5, -4, -14, -7, -5, -5
1503598212282,0, 2, -1, 2, 3, 0, -1, -2
1503598212289,-3, -6, -6, 1, 1, -1, -1, 1
1503598212304,-2, -3, -3, -5, -6, 0, -2, -2
1503598212313,-1, -2, -5, 1, 1, 2, 0, -2
1503598212319,-2, -5, -5, 1, 4, -2, 1, 0
1503598212334,-2, -7, -7, -1, 1, -1, 0, 0
1503598212342,-4, -10, -10, -7, 6, 1, -1, -1
1503598212349,1, 1, 9, 8, 5, 3, 2, 3
1503598212364,-3, -4, 0, -3, -5, -5, -1, 0
1503598212371,0, 2, 5, 0, 0, 2, 3, 4
1503598212381,0, 0, -2, 9, 9, 3, 0, -2
1503598212394,1, 10, 5, 6, 2, 0, -1, -1
1503598212402,0, 0, -1, -6, -7, -3, -1, 0
1503598212409,0, 1, -9, -2, -2, 0, -1, -3
1503598212425,4, 14, 2, 2, -1, 1, 1, -1
1503598212431,-6, -15, -28, -14, -7, -8, -5, -5
1503598212448,-3, -3, 4, 0, -2, 1, 3, 4
1503598212454,2, -3, 1, 3, -4, 0, 2, -1
1503598212462,-1, 1, 3, 1, 1, -1, -2, -3
1503598212469,1, 5, 12, 8, 3, 3, 0, 0
1503598212484,-2, -4, -4, -10, -25, -7, -3, -3
1503598212491,-1, -1, -2, -4, -12, -7, -4, -4
1503598212499,-2, -4, -4, -1, -2, -4, -4, 1
1503598212514,0, -3, 1, 4, -1, 2, 1, 1
1503598212515,-2, -2, -2, -5, -7, -7, -5, -4
1503598212522,1, -1, -2, -5, 2, 2, -2, -6
1503598212529,3, 8, 15, 5, 5, 4, 2, 4
1503598212544,-1, -3, -6, -6, -3, 2, -1, 1
1503598212551,-1, 2, -15, -2, -2, -1, -1, 0
1503598212567,1, 0, 3, 1, 9, 1, -1, -1
1503598212574,0, -1, 3, 5, -9, 0, -2, 1
1503598212583,-4, -4, -6, -6, -9, -5, -1, -2
1503598212590,0, -1, 4, 0, 3, -1, 1, -1
1503598212605,-2, 0, 1, -7, 2, -1, 3, -4
1503598212611,-3, -6, -3, -7, -9, -7, -6, -4
1503598212612,-1, 0, 1, 5, 7, 2, 1, 4
1503598212620,1, -5, -9, 0, 4, 2, 1, 1
1503598212634,0, 1, 5, 2, 1, 2, 1, 4
1503598212642,-6, -11, -9, 1, 25, 8, -1, -4
1503598212649,-4, -9, -7, -9, -6, -11, -3, -7
1503598212665,3, 10, 8, 0, -6, -1, -1, 4
1503598212672,1, 7, 6, 0, 11, 6, -3, -3
1503598212679,-2, 2, -6, -6, -14, -8, -5, -4
1503598212694,-1, -3, -6, 1, 2, 1, 2, 3
1503598212702,-1, 1, 10, 1, -10, -3, -2, -2
1503598212709,1, 1, 2, 7, 5, 6, 4, 2
1503598212724,2, 1, -5, -1, 9, 1, 0, -2
1503598212725,-2, -5, -4, -2, -2, -1, 0, -2
1503598212731,0, -3, -2, 7, 6, -1, 0, 1
1503598212739,-1, -2, 7, 6, 10, 2, 0, -1
1503598212754,-1, 5, 5, -6, -7, -1, -1, 0
1503598212762,0, -6, -3, 1, 0, -1, -1, 0
1503598212769,1, 7, 10, 4, 7, 0, -1, 0
1503598212785,5, 3, 4, 5, 7, 2, 2, 3
1503598212792,1, -5, -5, -4, -3, -4, -3, -2
1503598212800,-3, 6, 3, 2, -3, -2, -1, 1
1503598212817,-4, -5, -1, -7, -8, -7, -8, -6
1503598212823,-1, -5, -5, -4, -7, -3, -3, -1
1503598212829,0, -8, -13, -16, -13, -7, -3, -2
1503598212844,-3, -13, -19, -4, -6, -2, -2, -1
1503598212852,-2, -8, 0, -1, 2, 2, 2, 1
1503598212860,6, 20, 19, 11, 5, 0, 2, 2
1503598212874,-4, -13, -21, -10, -5, -4, -2, -5
1503598212886,-1, -4, -4, -6, -17, -5, -3, -4
1503598212890,-4, -6, -7, -4, -2, -2, -2, -2
1503598212904,-2, -4, -12, -8, -7, 0, -3, -3
1503598212911,1, 4, 11, 0, 1, 2, -1, -3
1503598212919,-1, 4, 7, 8, 19, 2, 1, 4
1503598212934,-3, 0, -2, 5, 3, -1, 0, -2
1503598212942,1, 5, 14, 1, -5, -2, -1, -2
1503598212951,2, 6, 10, 2, 2, 1, -1, -1
1503598212964,-1, -4, 1, 0, 2, 1, 3, -2
1503598212971,-2, -11, -25, -5, 0, 0, 1, 0
1503598212979,-2, -8, -5, 0, 1, 0, -2, -2
1503598212994,-2, -6, -12, -6, -3, -4, -5, -3
1503598213002,1, 8, 6, 1, 0, -1, 1, 2
1503598213019,-2, 9, 11, 6, 1, -1, -2, 0
1503598213024,-1, 0, -1, -2, -3, -1, -2, -2
1503598213031,1, -1, -1, 6, 4, 2, 1, 0
1503598213046,0, -1, -4, -4, -2, 0, -1, -1
1503598213054,-1, -2, -5, -5, 15, 4, -2, -3
1503598213062,-3, -3, -6, -1, 1, -1, -2, -4
1503598213076,2, 9, 8, 3, -5, 0, 3, 3
1503598213086,-4, -8, -8, -7, -1, -1, -2, -2
1503598213091,2, 7, 8, 5, -4, 0, -1, -1
1503598213106,0, -2, -1, 2, -3, -2, 2, -1
1503598213114,-7, -18, -11, -10, -4, -2, -1, -1
1503598213122,1, 9, 20, 4, 1, -1, -4, -1
1503598213136,-1, 0, -2, -4, -3, -2, -1, -3
1503598213144,-2, -4, 8, 1, -1, 0, -3, -1
1503598213152,-2, -7, -8, -5, -5, 1, -2, -1
1503598213166,-2, -4, -7, -1, -1, -2, -2, -4
1503598213174,1, 5, 7, -6, -40, -14, -2, -3
1503598213182,-1, -6, -9, -5, -2, -1, -2, -2
1503598213196,1, 5, 11, 3, -1, -1, 1, 2
1503598213205,-2, -8, -11, -3, -4, -1, 0, 0
1503598213211,6, 10, 16, 12, 12, 6, 2, 3
1503598213226,2, -1, -1, 0, 3, 0, 1, -1
1503598213234,-3, -12, -22, -7, 5, 1, -1, -3
1503598213242,0, 5, 11, 3, -7, -3, -2, -1
1503598213243,-2, 0, -5, -6, -7, -4, -1, 1
1503598213257,1, 5, 5, 4, 8, 2, 2, 2
1503598213264,-1, -3, -6, -1, 2, -2, -1, -2
1503598213272,-6, -5, -4, -5, 2, 0, -1, -1
1503598213287,-2, -2, -9, -7, -9, -3, -4, -1
1503598213294,2, 10, 11, 6, 16, 3, -1, -1
1503598213302,-2, -6, 3, -2, -2, -2, 0, -2
1503598213316,2, 6, 11, 3, -6, -4, 1, 1
1503598213325,-1, 3, 2, 2, 4, 1, 0, -2
1503598213331,-3, -4, -6, 0, 4, 3, 0, -1
1503598213346,-2, -5, -9, -6, -2, -2, -3, -3
1503598213354,0, -1, -5, -3, 0, 0, -2, -3
1503598213362,5, 17, 27, 16, -3, 4, 4, 6
1503598213376,-3, -8, -6, -1, -3, -3, 0, -3
1503598213384,2, 6, 7, -2, -2, -1, -1, 1
1503598213391,-7, -10, -24, -14, -6, -4, -2, -4
1503598213406,0, -6, -8, -6, -2, -5, -2, -5
1503598213414,-3, -7, -10, -5, -3, -3, -4, -3
1503598213422,10, 4, 8, 3, 4, 2, 3, 5
1503598213436,-7, -17, -12, -4, -2, -1, 0, -4
1503598213444,0, 6, -16, -8, -3, 1, 0, -1
1503598213451,4, 14, 23, 5, 0, 0, -1, 3
1503598213466,-5, 3, 6, 5, 25, 6, -2, -2
1503598213474,4, 9, 8, 10, 13, 5, 1, 0
1503598213482,-2, -5, -8, -6, -16, -9, -1, -3
1503598213496,7, 4, 10, 14, 20, 5, 2, 5
1503598213504,-3, 5, 0, -3, 3, 0, -1, 0
1503598213511,-1, -3, -7, -7, -14, -3, 0, 0
1503598213526,-3, -2, -3, -7, -12, -5, -1, -5
1503598213534,-6, -22, -11, -12, -10, -5, -7, -5
1503598213542,1, -17, -5, 2, 1, 2, 2, 4
1503598213556,6, 6, -2, -5, -9, -3, 0, 0
1503598213565,-4, 4, -7, -5, -3, -3, -3, -4
1503598213571,-1, 7, 4, 1, -5, 2, 4, 3
1503598213589,-1, -4, -6, -5, -2, -2, -3, -1
1503598213594,-6, 2, 0, -16, -48, -17, -6, -6
1503598213602,0, -5, -1, 1, -3, 0, 2, 3
1503598213616,0, -1, -3, 0, 3, 0, 0, 1
1503598213625,-8, -16, -7, -2, -4, -5, -8, -6
1503598213631,6, -1, -11, -2, 19, 9, 5, 3
1503598213646,4, 31, 18, 6, 6, 1, 1, -1
1503598213657,-2, -1, -1, -3, 2, -2, -2, -4
1503598213662,3, 3, -6, 8, 8, 7, 3, 7
1503598213676,-1, 8, 12, 13, 28, 4, 1, 3
1503598213684,-5, -5, 3, 5, -4, -4, -1, -2
1503598213691,-2, -3, -1, -3, -1, 3, -2, -2
1503598213707,1, 0, 3, -7, -3, -2, 0, -2
1503598213714,-1, -5, -2, 1, -10, -8, -7, -3
1503598213729,0, 0, -1, -3, -5, 1, 2, 4
1503598213736,4, 8, 15, 7, 10, 5, 4, 3
1503598213744,1, 1, 2, 7, 27, 6, 2, -2
1503598213751,-2, 0, -3, -4, -3, 0, -1, -2
1503598213766,-4, -10, -6, -7, -12, -4, 0, -1
1503598213774,7, 17, 8, 12, 16, 3, 1, 1
1503598213782,-6, -11, -19, -5, -7, -3, -3, -3
1503598213796,-7, -11, -5, -6, -9, -6, -5, -7
1503598213804,0, -1, 2, -3, -2, -1, -2, 2
1503598213811,-3, -2, 1, -3, 0, -2, -3, -1
1503598213826,-1, 9, 7, -2, -1, -1, -1, -3
1503598213834,-5, -2, -4, -1, -9, -5, -6, -4
1503598213842,-1, -14, -17, -8, -4, -1, -3, -2
1503598213858,0, -5, -2, -8, -6, -3, 3, 3
1503598213865,2, 3, 6, 3, 1, 2, -1, -1
1503598213871,-1, -3, -2, -1, -6, -2, -2, -1
1503598213886,-1, 4, 5, 2, 0, -1, 2, 3
1503598213894,-1, 9, 13, 5, 3, 3, 2, -4
1503598213902,-1, 4, 4, 2, 0, -3, -4, -5
1503598213916,-1, -3, -9, 1, -1, 0, 1, 1
1503598213926,2, 10, 7, 4, 1, 0, 2, 0
1503598213927,-3, -12, -8, -5, -3, -4, -4, -2
1503598213938,-1, -9, -6, -3, -1, -2, -1, 1
1503598213946,-1, -1, -2, 1, 0, 0, 0, -3
1503598213954,0, -5, -5, 0, -2, 1, 0, 0
1503598213969,-1, 0, -7, 0, 2, -2, -1, -2
1503598213976,2, 4, 3, 8, 8, 4, 3, 2
1503598213984,-2, 0, -2, 0, 6, 1, 1, 1
1503598213998,0, -1, 2, -5, -7, -3, -1, -2
1503598214006,3, 2, 3, 1, -2, 1, 1, 0
1503598214014,-2, -2, -11, -6, -3, -2, -1, -2
1503598214030,2, 9, 11, 5, -2, 0, 0, 1
1503598214037,-7, -1, -20, -10, -3, -3, -4, -6
1503598214044,-6, -8, 10, 5, 2, 0, 2, 0
1503598214059,-1, -18, -5, -2, 2, -1, -1, 1
1503598214067,-5, -6, -5, -5, -4, -2, -2, -4
1503598214074,3, 4, 7, 2, -1, 0, -3, 1
1503598214089,2, 1, 1, 4, 2, 2, 2, 2
1503598214096,3, 5, 3, 9, 6, 1, 0, 0
1503598214105,1, -4, 0, 0, -3, 2, 2, 3
1503598214119,-2, -4, 1, 0, 7, 4, 1, 3
1503598214127,7, 17, 5, 7, 5, 1, -1, 2
1503598214134,-10, -18, -14, -6, -7, -5, -5, -6
1503598214149,3, -2, 1, 2, 3, -2, 1, -2
1503598214156,3, -4, 6, 1, 2, 1, 0, 0
1503598214164,-3, -3, -7, -7, -7, -3, -3, -2
1503598214179,0, 7, 3, 0, -1, -2, -1, 1
1503598214187,-1, 0, -1, -8, -7, -2, 1, -1
1503598214194,-1, 0, -2, -9, -21, -9, -4, -5
1503598214209,6, 4, 5, 14, 5, -3, 0, 1
1503598214216,3, 9, 4, -3, -12, -6, -3, -2
1503598214228,1, 0, 3, -1, -3, -1, -2, 0
1503598214239,1, 8, 1, 1, 4, 0, 3, 3
1503598214247,-6, -11, -5, -3, 1, 1, -1, -4
1503598214254,10, 20, 14, 1, 3, 3, 1, 1
1503598214269,-5, -5, -10, -12, -22, -7, -5, -5
1503598214276,-7, -16, -6, -2, 2, 1, 1, 1
1503598214284,-1, -8, -2, 8, 21, 7, 2, 1
1503598214299,-1, 1, 1, 11, 15, 3, 1, 1
1503598214307,-1, 3, 2, -10, -15, -6, -2, -2
1503598214314,-1, -7, -9, 0, 4, -2, -3, -6
1503598214331,-1, 0, -1, -5, -7, -2, -2, -2
1503598214337,-3, -7, -13, -10, -9, 1, 3, 0
1503598214344,-1, 2, -2, -1, 4, -1, -4, -2
1503598214362,-3, -7, -3, -5, -5, -4, -1, -1
1503598214366,3, 5, 5, 7, -2, 0, 2, 3
1503598214374,2, 7, 11, 19, 21, 7, 1, -2
1503598214389,0, -1, -8, -2, -6, -4, -3, -2
1503598214401,0, -1, 0, -5, -5, -1, -2, 0
1503598214404,0, -2, 0, -2, 1, 1, -3, 0
1503598214419,-1, 3, -3, -6, -1, -2, -3, -1
1503598214429,-4, -8, -23, -11, -6, -2, 0, 0
1503598214434,-1, -5, 2, -3, -4, 0, 1, 1
1503598214449,-1, -3, 6, 0, 6, 0, 0, -3
1503598214456,-1, 5, 7, 2, -1, -2, 0, -2
1503598214464,-2, 1, 0, 3, 7, 4, 2, 0
1503598214479,-2, 0, 0, -3, -6, -2, -2, -4
1503598214487,1, 2, 6, -4, -12, -4, -3, -2
1503598214495,-1, -3, -3, 0, 5, 0, 1, 2
1503598214509,0, 2, 3, 3, -5, -7, -5, 0
1503598214516,2, 2, -2, -6, -8, -3, -3, -2
1503598214524,0, -1, -1, -2, 2, -1, 1, -2
1503598214544,-3, -7, -10, -5, -3, -2, -1, 0
1503598214545,0, 5, 10, 1, -2, -1, -3, -1
1503598214547,-3, -2, 1, -5, -5, -3, -1, -1
1503598214554,0, 1, 0, 2, 1, -2, -3, -3
1503598214569,0, 2, 4, 2, 7, 2, 2, 1
1503598214576,2, -4, -3, 11, 31, 12, 4, 2
1503598214584,-1, 2, 5, 2, 1, -1, -2, -2
1503598214599,-1, 0, 3, -5, -14, -6, -3, -3
1503598214607,1, 0, -1, 5, 8, 5, 2, 2
1503598214614,-2, -5, -4, -2, -7, -3, 0, -1
1503598214629,-1, -5, 1, 3, -2, -2, 0, -1
1503598214636,-3, 0, -11, -7, -8, -5, -4, -5
1503598214644,1, -4, -9, -3, 1, 1, 0, 0
1503598214659,-4, -11, -14, -5, -4, -1, -2, -2
1503598214667,1, 5, 6, -1, 2, -2, -2, -3
1503598214674,0, 0, -1, -1, -4, -2, 0, -1
1503598214689,-1, 1, 2, 1, -2, -2, -2, 0
1503598214696,-4, 1, -1, -9, -11, -7, -4, -3
1503598214705,-3, -3, -7, -4, -2, -1, 0, 0
1503598214719,1, 0, 2, -4, -10, -4, -1, -2
1503598214727,-2, 0, -3, -3, -6, -3, -2, -1
1503598214734,-1, 5, 13, 6, 7, 4, 2, 2
1503598214749,0, 3, 9, 5, 3, 0, 0, 0
1503598214756,-1, -7, 0, 3, 5, -1, 0, -2
1503598214764,-4, -2, -4, -9, -3, 0, -2, -3
1503598214778,2, 0, -2, 1, 0, 2, 3, 3
1503598214786,-2, 2, 2, 5, 4, 2, -2, -3
1503598214794,-1, -4, -3, -4, -3, 2, 0, 0
1503598214809,2, 4, 3, 7, 13, 1, 1, -1
1503598214816,0, 1, -3, -7, 15, 6, 1, 1
1503598214824,-2, -3, -4, -4, -3, -2, -2, -2
1503598214839,2, 5, 1, 0, -4, -5, -4, 0
1503598214847,9, 46, 60, 16, 6, 4, 5, 4
1503598214854,-1, -3, -6, 0, -4, -1, -1, -5
1503598214874,-5, -15, -19, -8, -8, -3, 1, -4
1503598214876,-2, -2, 2, 1, 0, -1, -1, -1
1503598214891,-1, -11, -12, -7, -6, -2, -1, -1
1503598214899,0, -5, -17, 2, -1, -3, -5, -4
1503598214907,-1, -5, -10, -4, 2, 2, 2, 3
1503598214920,-6, -13, -19, -8, -7, -3, -2, 1
1503598214931,0, -9, -5, -4, -4, -5, -2, -2
1503598214936,-1, -4, 4, 6, 3, 3, 0, 1
1503598214951,-4, -17, -13, -6, -4, -1, -1, -3
1503598214959,1, 0, 8, 1, 0, 0, -2, -2
1503598214967,2, 5, 5, 0, -4, -2, -2, 0
1503598214980,0, 6, 6, 2, -1, -1, 4, 2
1503598214988,0, 3, 13, 4, 1, 0, -4, -1
1503598214989,-2, 1, 1, 0, -3, -1, -1, -1
1503598214998,-3, -8, -4, -6, -2, 0, 1, -1
1503598214999,0, -1, -1, 2, 5, 1, 1, 1
1503598215012,2, 9, 1, 4, 44, 15, 3, 1
1503598215019,2, 4, 4, 3, 1, 2, 0, 0
1503598215027,-2, -3, -9, -1, -11, -4, -1, 1
1503598215041,0, -4, -6, -4, 3, -1, -2, -3
1503598215049,-5, -7, -8, -6, -7, -2, -3, -2
1503598215056,0, 1, -2, -5, -15, -8, -4, -4
1503598215071,0, -3, 1, -1, -3, -1, 0, -1
1503598215079,-2, 4, -1, -1, 0, -2, -2, 0
1503598215087,-3, -10, -5, -3, -14, -7, -4, -3
1503598215101,1, -5, -2, 2, 2, 2, 0, 1
1503598215109,-3, -6, -11, -6, -12, -2, 1, -1
1503598215116,4, 7, 2, 7, 41, 13, 3, -2
1503598215133,-1, 2, 3, -1, 0, -2, -1, 0
1503598215139,-2, -1, 1, -2, -7, -2, -1, -1
1503598215147,3, 3, 2, 8, 32, 7, -1, 2
1503598215160,-2, 0, 6, -4, -11, -2, 1, -1
1503598215169,-2, -1, -2, -1, -10, 0, 1, -1
1503598215177,-4, -6, -14, -3, -2, -2, -2, -2
1503598215191,1, 3, 1, 2, -3, -1, 1, 1
1503598215200,-1, -2, -9, -4, -9, -2, 0, -2
1503598215207,-7, -12, -10, -7, -7, -3, -1, 0
1503598215221,0, 2, 9, 0, -7, -4, -1, 1
1503598215229,2, 5, 12, 4, 2, 0, 1, 1
1503598215236,-1, 4, 3, 1, 0, 0, -1, -3
1503598215251,1, 2, -5, -4, -12, 1, 0, -3
1503598215271,5, 5, 7, 2, 0, 1, 1, 4
1503598215277,0, 1, -4, -3, -5, -3, -3, 0
1503598215281,-3, -6, -6, -3, -1, -1, -1, -3
1503598215289,2, 10, 11, 4, 2, -1, -3, -1
1503598215296,-2, 5, 10, -3, -2, -1, -3, -1
1503598215311,-4, -7, -9, -6, -4, -4, -4, -5
1503598215319,-2, -3, 0, 0, -3, -1, 0, -1
1503598215327,-1, -7, -1, 0, -1, 0, -2, -4
1503598215340,2, 10, 6, 1, 0, -1, 0, 1
1503598215341,-2, -5, -4, -1, -1, 0, -2, -1
1503598215349,-2, -4, -3, -2, -1, -3, 0, -2
1503598215356,4, 9, 27, 9, 1, 1, 2, 2
1503598215371,0, 4, 3, 1, 0, -1, -2, 0
1503598215379,-3, -3, -11, -4, -2, -1, -1, -4
1503598215387,-3, -2, -10, -1, -2, -2, -2, 2
1503598215401,-1, 1, -3, -3, -1, -4, -3, -5
1503598215410,2, 11, 5, -1, 0, -3, 0, -2
1503598215416,11, 6, -17, 0, -3, -1, 1, 7
1503598215431,-11, -5, -5, -2, -2, 0, -1, -1
1503598215439,-6, -12, -4, -3, 1, -3, -1, 4
1503598215447,-7, 5, -2, 5, 2, 0, 0, 2
1503598215461,9, -9, -11, -6, -2, -2, -2, -3
1503598215469,8, 0, 1, -1, -2, -1, 0, -1
1503598215477,-9, 1, 6, 3, -1, 0, -2, -2
1503598215494,-3, -11, -14, -7, -6, 0, -1, -5
1503598215495,3, 18, 9, 6, 2, 3, 0, -2
1503598215499,-1, -3, -4, -5, -3, -3, -2, -2
1503598215507,-3, -13, -5, -4, -1, -1, -1, 3
1503598215520,-7, 11, 16, 3, 0, 1, 3, 6
1503598215529,-2, 1, 6, -1, 0, -1, 0, -3
1503598215536,0, -10, -4, -3, -2, -1, -3, -4
1503598215551,3, -11, -10, -2, -2, -2, -1, -3
1503598215559,-6, 5, 3, 1, 1, 1, -4, -5
1503598215569,0, -6, -9, -5, -2, -2, -2, -5
1503598215580,-1, -5, -4, -1, -2, 2, 0, -2
1503598215589,2, 6, -5, -6, -1, -1, 0, -2
1503598215596,0, -4, -11, -3, 0, -2, -2, -4
1503598215611,5, -10, -11, -5, -3, 2, -1, -1
1503598215618,-2, 1, 2, 0, -2, -3, 0, -3
1503598215627,-1, -1, -1, 1, -2, -1, 0, 1
1503598215641,4, 0, -7, 1, 0, 2, 1, 0
1503598215649,-3, -5, 2, 1, -2, -3, -4, -2
1503598215656,-2, -5, -3, -3, -3, -2, -1, 0
1503598215671,-1, 0, 6, 0, 0, -1, -2, -1
1503598215681,-6, -1, -2, -3, 0, -3, -4, -10
1503598215687,4, 13, 28, 9, 2, 2, 3, -2
1503598215700,-7, -5, -9, -3, -1, -3, -3, -4
1503598215701,-3, 0, 3, 0, -3, -1, 0, -2
1503598215709,-16, -6, -9, -4, -1, -1, -3, -7
1503598215716,-3, -2, 1, -1, 2, -1, -4, -7
1503598215731,8, 1, 3, 1, -1, 0, 1, 6
1503598215739,-2, -6, -6, -1, -2, -1, 0, 3
1503598215748,3, -3, -4, -2, 0, 0, 1, 1
1503598215760,0, -2, 2, -1, 0, -1, 0, -8
1503598215761,3, -1, -1, 0, -1, -1, 0, 1
1503598215771,-7, 7, 2, 1, 1, -1, -4, -15
1503598215776,12, 0, -2, 0, 0, 2, 0, 10
1503598215791,-14, -6, -8, -4, -4, -5, -6, -17
1503598215799,8, 6, 7, 2, 1, 0, 5, 37
1503598215814,-8, -10, -8, -3, -2, -1, 1, 3
1503598215820,2, 3, 1, 0, -1, -1, -2, -9
1503598215829,6, 1, 2, -1, -1, 1, -1, 4
1503598215843,-6, 3, 5, 1, 0, -1, -2, -5
1503598215851,3, 1, 1, 1, 1, 0, 1, 1
1503598215858,-4, -3, -5, -2, -1, -3, -2, -2
1503598215874,5, -2, -5, -2, -1, 0, 0, 9
1503598215880,-6, -2, -4, -2, -2, -2, -3, -10
1503598215888,4, 2, 2, -1, -1, -2, 0, 2
1503598215905,-4, 0, 3, 0, 1, -1, 2, -7
1503598215912,-3, -4, -3, -4, -1, 1, 0, 3
1503598215918,18, 1, -1, -2, -2, -2, -4, -3
1503598215933,-2, 2, 3, 3, 2, 3, 3, 3
1503598215940,-6, -2, -3, -2, 0, -1, -3, -2
1503598215941,-2, 0, -1, 1, 1, -1, 1, -3
1503598215949,-1, 0, 1, -3, -5, -2, 0, -1
1503598215963,-2, -8, -6, -5, -4, -2, -2, -4
1503598215972,4, 14, 28, 13, 1, -2, -2, 3
1503598215979,-7, -1, -1, -3, 0, -1, -1, -1
1503598215993,-2, -11, -16, -6, -1, -1, -2, 1
1503598216000,2, 6, 16, 6, 0, 2, 0, 1
1503598216009,33, 6, -7, -3, -1, 0, 1, 8
1503598216023,-43, -4, 1, -1, 2, -2, -2, -8
1503598216031,-10, -11, -11, 1, -4, -4, -2, -5
1503598216040,7, -4, -15, -7, -5, -1, -1, -1
1503598216053,-5, -10, -9, -7, -1, -2, -3, -1
1503598216060,1, -3, -3, -1, -2, -3, -3, -3
1503598216069,1, 13, 6, -1, -5, -2, 2, -1
1503598216083,-1, -6, -6, -2, 0, -1, 0, -1
1503598216091,-8, 9, 24, 7, 5, 3, 1, 3
1503598216099,9, -11, -6, 5, 7, 2, 3, 1
1503598216116,-4, 3, 17, 9, 2, 2, 1, -1
1503598216120,9, 13, 6, 4, -2, -2, 1, 5
1503598216129,-2, -8, -14, -4, 3, 1, -2, 0
1503598216144,3, -8, -5, -9, -8, -4, -2, -1
1503598216151,5, 3, 2, 1, -11, -6, -3, -1
1503598216158,5, 6, 12, 5, 0, 1, -2, -2
1503598216174,-5, -1, -15, -5, 0, -1, -1, -3
1503598216181,-17, -12, -16, -2, -1, -1, 5, -1
1503598216188,11, 11, 10, 3, -1, 1, 0, 2
1503598216189,-8, -11, -13, -5, -2, -3, -5, -3
1503598216203,-15, 9, 6, -1, 1, -1, -3, -4
1503598216211,0, 5, 3, -1, -1, -1, -2, -2
1503598216219,7, 29, 42, 17, 6, 2, 2, 4
1503598216233,-2, -5, -8, -7, -1, -3, -1, -2
1503598216241,-2, -15, -18, -8, -4, 0, -2, 0
1503598216249,7, 15, 10, 2, 1, -2, 0, 0
1503598216263,5, 3, 1, -5, -3, -1, -2, -1
1503598216271,-5, -7, -11, -5, -1, 0, -2, -2
1503598216286,-2, -1, -1, 0, 3, -2, -1, 1
1503598216293,-3, -11, -12, -8, -9, -5, 0, -4
1503598216300,4, -4, 0, 3, 15, 6, -1, 1
1503598216309,-2, -7, -8, -3, -6, -2, -1, 0
1503598216323,-3, -8, -2, -5, -7, -2, -2, -2
1503598216331,2, 3, -3, 0, 1, 2, 1, 1
1503598216341,-3, -6, -10, -4, -4, 1, -1, -1
1503598216354,4, 11, 22, 5, -5, -2, -2, 2
1503598216360,0, 2, 0, 8, 14, 4, 5, -3
1503598216369,-3, -5, -10, 1, 2, -3, -1, -1
1503598216383,4, -2, -6, -7, -5, -2, -4, 0
1503598216391,-4, -3, 2, 3, 17, 10, 7, 0
1503598216398,1, -6, -8, -3, -7, -6, -5, -4
1503598216414,1, 4, 0, -2, -9, -4, -4, -3
1503598216421,1, 2, 0, -2, -3, -2, -1, 0
1503598216428,1, 3, 1, 3, 4, -1, -1, -1
1503598216443,-1, 1, -2, -2, -3, -3, -1, 0
1503598216451,-6, -13, -12, -8, -7, -4, -1, -2
1503598216458,7, 15, 10, 5, -2, -1, 1, 0
1503598216475,-4, -6, -2, -4, -1, 0, -2, -1
1503598216480,0, -4, -1, -2, -1, -1, 0, 1
1503598216489,-1, -4, 2, 3, -3, -1, -1, -1
1503598216503,-1, -3, -3, -3, -2, 1, 3, 1
1503598216511,-1, 3, 3, 1, 3, 2, 0, 2
1503598216518,1, -1, -5, -1, -2, -1, -3, -1
1503598216533,-1, -4, -4, 0, 1, -2, -1, -2
1503598216542,2, 2, 1, 5, 2, 1, 1, 2
1503598216549,0, 1, -6, -3, -1, -1, -3, -2
1503598216563,0, -6, -1, -5, -6, -3, -3, -2
1503598216571,-1, -10, -9, -4, -4, 1, 0, -2
1503598216579,-9, -14, -11, -2, 0, 1, -1, -3
1503598216594,-1, 0, 2, -2, 0, 2, 0, 0
1503598216600,0, 5, 10, 2, -2, -1, -2, -4
1503598216610,-1, 1, 3, -1, -1, -3, 0, 0
1503598216623,-2, -1, -3, -4, -1, -2, -3, -1
1503598216631,0, 4, 5, 0, 1, 0, -2, -3
1503598216638,0, 1, 0, 0, 1, -1, 0, 0
1503598216653,1, -2, -4, -2, 0, -2, -2, 1
1503598216660,-1, 1, 1, -2, -1, -3, -4, -2
1503598216668,0, -1, 0, 2, 1, 1, 1, -1
1503598216683,0, 1, -1, -3, -1, -1, -1, 0
1503598216691,-3, -14, -6, 0, 0, 1, -1, -4
1503598216699,-4, -8, -1, 0, 1, -1, 2, 1
1503598216714,-2, 2, 4, -3, -9, -3, -2, -5
1503598216720,-1, 0, -2, -4, -5, 0, 0, -1
1503598216736,1, 0, 2, 7, 7, 0, -1, 0
1503598216745,0, 2, -5, 0, 0, -1, -3, -1
1503598216752,-2, -1, -2, -4, -5, -1, -1, 0
1503598216765,-1, -2, -2, -1, 0, 1, 0, -2
1503598216773,0, 0, -3, -1, 2, -1, -1, 1
1503598216780,-2, -7, -4, -4, 0, 0, 1, -1
1503598216796,5, 14, 6, 4, 2, 1, -1, 0
1503598216804,5, 1, 2, -2, -5, -3, -2, -2
1503598216811,-3, -13, -11, 1, 3, 1, 1, -1
1503598216827,-3, -2, -4, -2, -2, -1, 1, -1
1503598216833,-2, -7, -10, -6, -4, -4, -3, -2
1503598216842,0, 2, 5, 4, -1, -3, -2, 0
1503598216856,-2, 0, -1, -3, 1, -2, 0, 2
1503598216864,-2, 2, -1, -7, -2, 0, -4, -1
1503598216871,5, 2, 3, -1, -2, -4, 0, -2
1503598216887,1, 2, 1, 3, -1, 0, -2, -2
1503598216894,-3, 1, 4, 0, 1, 0, 0, -2
1503598216902,-2, -3, -3, -1, -3, 0, -1, 0
1503598216916,1, 4, 4, 2, -1, 1, -3, 1
1503598216924,-1, -4, -1, 0, 0, 1, 0, 2
1503598216931,-5, 1, 8, 0, -1, 0, 0, 1
1503598216947,-2, -1, -3, -3, 0, -1, 0, 0
1503598216954,-1, -1, -3, -3, -2, -2, 0, 0
1503598216961,-4, -1, -3, -3, -1, -1, 1, -2
1503598216977,-1, -3, -3, 2, 0, 1, -3, -1
1503598216984,0, 1, 0, 1, -1, -2, 0, -1
1503598216991,-1, 0, 0, -2, -4, -1, 0, 3
1503598217007,-4, -2, -1, -4, -4, -4, -5, -6
1503598217014,-8, 3, -2, -12, -9, -3, -3, -5
1503598217022,6, 4, -2, 1, 9, 3, 0, -1
1503598217036,-19, -8, -6, 0, 2, -1, 1, -5
1503598217047,-3, -2, -2, 0, -1, 0, 1, 0
1503598217051,7, 5, 3, 0, -1, 0, -1, 0
1503598217067,1, -1, 0, 2, 1, -1, 2, 1
1503598217074,1, 4, 6, 4, 1, 1, 1, -2
1503598217082,5, 17, 14, 4, 1, 1, 1, 3
1503598217097,2, 2, 3, 5, 5, 1, 0, -1
1503598217104,-2, -4, -7, 1, -1, 0, -1, -2
1503598217114,6, -1, 2, -2, -1, -1, 1, 1
1503598217127,-3, 0, 2, -4, -7, -3, -2, -2
1503598217133,3, -2, -6, -1, 0, 0, 1, 3
1503598217142,2, 0, -6, -1, -1, -1, -1, 3
1503598217156,-4, -6, -4, -2, -1, -1, -2, -4
1503598217171,-1, 8, 13, 3, 2, -2, -1, 0
1503598217172,0, -4, -2, -1, -1, 1, 1, -1
1503598217187,0, -5, -3, -3, -1, -2, 0, 0
1503598217194,-1, -1, 0, -1, -1, -3, -7, -6
1503598217202,-3, -7, -5, 0, 1, -2, -3, -1
1503598217217,1, 0, 1, 7, 7, 0, 0, 1
1503598217224,-1, -3, 0, -4, -4, -2, -2, -4
1503598217231,-1, -12, -3, -4, -1, 3, 1, 0
1503598217248,-4, -5, -7, -1, -1, -1, -2, -5
1503598217254,0, 0, -11, -6, -4, -2, -1, 0
1503598217262,-6, -11, -8, -4, -2, 0, -1, -1
1503598217277,-1, 4, -1, -1, -2, -2, -1, -1
1503598217285,0, 0, -3, -1, -2, 0, -2, 0
1503598217291,0, 2, -4, -2, -1, 0, 3, 1
1503598217307,-1, -2, -2, 2, 5, 2, -3, -2
1503598217315,0, 0, 2, 4, 3, 2, 2, -1
1503598217322,2, 4, -1, -3, -6, -3, -2, -2
1503598217336,4, 13, 14, 4, -1, -2, -2, 2
1503598217344,1, 2, 6, 4, 1, 1, 3, 1
1503598217352,-3, -3, -11, -4, -2, -3, -2, -2
1503598217367,-1, -7, -8, -5, -4, -1, -1, -1
1503598217374,-3, -12, -8, -1, -1, -2, 0, -1
1503598217386,0, 2, 0, -1, 0, 1, 0, 1
1503598217397,-2, 2, 2, 0, -2, 0, -2, -1
1503598217404,-1, 2, 5, -2, -3, -1, 0, -1
1503598217411,-1, -8, -5, -7, -5, -2, -4, -4
1503598217427,-3, -4, -4, -2, 0, 0, 1, 1
1503598217434,0, -1, -5, -2, -1, -2, -3, -1
1503598217442,-4, -4, -3, -4, -1, -2, -3, -2
1503598217457,1, -3, -1, -2, -1, -3, 2, -1
1503598217464,-1, -1, 0, 0, 1, 0, 2, -1
1503598217479,2, 6, 5, -4, -4, -3, -3, 3
1503598217487,4, -8, -7, 0, 0, -2, 0, 2
1503598217494,-3, 1, 2, 2, 0, 1, 0, -1
1503598217509,-3, -2, -1, -2, -3, -1, -1, -1
1503598217517,-3, -5, -1, -2, -1, -1, -2, 0
1503598217525,0, 2, -2, -1, -2, 1, -2, 0
1503598217531,2, 2, 2, 0, 0, 2, -1, -3
1503598217548,0, 3, -1, -3, -3, -2, 1, -2
1503598217554,-2, -1, 2, 4, 4, 1, 2, 1
1503598217569,5, 5, 3, 3, 0, 1, -1, 2
1503598217576,2, 4, 8, 1, -1, -2, 2, -1
1503598217585,-5, -7, -3, -1, 0, -3, -4, -3
1503598217592,-1, -6, -7, -3, -1, 0, -3, -1
1503598217607,-4, -5, 0, -3, -4, -1, 0, -2
1503598217614,-7, 0, 1, 1, -1, -1, 0, -2
1503598217629,-1, 0, -2, 0, 0, 0, -1, -2
1503598217636,0, 4, 2, 8, 2, 2, 0, 1
1503598217644,-1, 0, 3, 2, -1, 0, 3, 0
1503598217652,0, 2, -5, -4, -6, -1, -1, -1
1503598217666,3, -3, -1, -3, -3, -1, -3, -2
1503598217667,-13, -3, -4, 1, 5, 1, -2, -4
1503598217674,9, 2, -3, -3, -2, -3, 0, 0
1503598217689,-12, -4, -1, 1, 0, 0, 1, -1
1503598217696,-5, -2, -1, -2, 0, 0, 0, -2
1503598217704,4, 0, 8, 2, -1, -1, -4, 0
1503598217719,-3, 0, 2, 1, 0, -2, 0, -2
1503598217727,7, 4, -7, -2, 0, -2, 0, 1
1503598217733,-1, -10, -10, -5, -2, -2, -4, -2
1503598217750,3, 4, 4, 3, -1, -2, -2, -1
1503598217757,-1, -1, 2, -3, -1, -3, -3, 1
1503598217764,5, 4, 5, 1, 0, -1, 0, -2
1503598217779,-3, 0, -4, 0, 0, 0, 0, -3
1503598217794,11, 3, -2, -4, 1, 0, -2, -1
1503598217795,-4, -6, -5, -1, -2, 1, -1, -1
1503598217809,-2, -3, -3, -4, -1, 0, 1, 0
1503598217820,0, 0, 4, 1, 1, -1, 1, 0
1503598217824,-2, -5, -3, -3, -3, -2, -3, -6
1503598217825,3, 3, 10, 3, 1, -2, -1, 1
1503598217839,-7, -3, 2, 2, -2, -1, -1, -3
1503598217847,-4, -5, -5, -1, -1, 0, -1, 0
1503598217856,0, 0, 0, -2, -3, -3, -1, -1
1503598217869,3, -4, -8, -4, -4, -2, -3, -3
1503598217877,3, 0, -5, -4, -1, -2, -1, -4
1503598217886,-5, 3, 4, 2, 1, 0, -1, 2
1503598217899,0, -4, -7, -2, 0, 1, 1, 2
1503598217907,0, 2, -1, -3, -1, -1, -2, 0
1503598217914,2, -4, -5, 0, -1, -2, -4, -1
1503598217929,-3, -3, -3, -2, -2, -1, -1, -2
1503598217936,-2, 0, 4, 2, 4, 1, 0, 1
1503598217944,-4, -4, -4, -4, -2, -1, 0, -2
1503598217959,6, 11, 10, 0, 3, -1, 1, 2
1503598217967,0, 2, 4, 1, 2, 1, -1, -1
1503598217974,-4, 2, 1, -1, -4, -1, -1, 0
1503598217989,-1, -5, -4, -2, -2, 0, 0, -1
1503598217996,-1, 3, 4, 2, -1, 1, -1, -2
1503598218004,-1, -4, -5, -3, -3, -2, -4, -2
1503598218019,-2, -4, -6, -1, -2, -1, -2, -3
1503598218027,0, -3, -2, -5, -2, -2, -1, 0
1503598218034,3, -1, 4, 0, -2, -2, -1, 0
1503598218049,0, 5, -1, 0, -1, 0, 0, -1
1503598218056,-2, -4, -2, -3, -3, -1, 0, -1
1503598218064,-1, -4, -2, 1, 3, 3, 3, 1
1503598218079,0, 4, 12, 5, 0, 0, -1, -2
1503598218087,0, 3, -4, -3, -2, -1, 0, -1
1503598218094,-1, -4, -9, -3, 3, -1, -1, 0
1503598218109,-1, 3, 7, 2, -6, -2, -1, 0
1503598218116,-1, -4, -6, 1, 5, 0, 1, -1
1503598218124,-4, 1, 4, -8, -13, -7, -3, -3
1503598218138,-3, -1, -5, -6, -17, -4, -2, -3
1503598218146,-2, -6, -6, 0, 8, 2, -1, -1
1503598218147,-2, -3, -2, -1, 0, 0, -1, 2
1503598218154,0, 0, -2, -3, -1, -1, -2, 0
1503598218169,-1, -3, -9, -4, -4, -2, -3, -3
1503598218176,1, 0, -3, 0, 2, 0, -2, 0
1503598218184,-4, -4, -3, 2, 6, 2, 1, 0
1503598218198,2, 4, 6, -1, 1, 0, 0, 1
1503598218206,-3, -10, -13, -1, 4, 2, -1, -2
1503598218213,0, 7, 11, 0, -2, -2, -2, -1
1503598218229,-7, 3, 5, 1, 1, -3, 0, -2
1503598218236,-6, -6, -2, 3, 3, 1, -1, 0
1503598218244,3, 2, 5, 7, 2, 3, 2, -1
1503598218259,-1, 0, -5, -3, -11, -5, -1, -2
1503598218267,0, -2, -3, -4, -1, 0, -2, -3
1503598218273,2, 7, 14, 1, 2, 1, 1, 1
1503598218289,-1, -6, -7, -1, 1, -3, -1, -2
1503598218296,-2, -6, -14, -7, -5, -2, -2, -1
1503598218304,-5, 0, 7, 6, 3, -1, -1, -2
1503598218318,12, 6, -8, -3, 0, 0, 0, 3
1503598218326,1, -5, -7, -6, -3, 0, -3, 0
1503598218333,-3, 1, 6, -1, 0, 0, -4, -2
1503598218349,0, 3, 4, -5, -4, -2, -1, 1
1503598218358,-4, -4, -8, -3, 0, -1, 1, 0
1503598218364,-2, 2, -2, -1, 1, -1, 1, 2
1503598218379,-4, -7, -10, -6, -5, -4, -1, -2
1503598218389,3, 3, -2, -1, -1, 0, -1, -1
1503598218394,0, 9, 23, 8, 4, 3, 1, 3
1503598218409,1, 1, -4, -7, -13, -4, -3, 1
1503598218416,-3, -12, -14, -6, 1, -2, -3, -5
1503598218424,1, -1, 7, -1, 14, 5, -1, -4
1503598218439,-2, -1, 1, 0, -1, -1, 1, 0
1503598218446,-6, -6, -3, 0, -2, -2, -4, -6
1503598218456,0, 1, 5, 4, 3, 1, 0, 2
1503598218469,7, 9, 14, 6, 0, 0, 2, 2
1503598218476,-5, -3, -3, 1, -2, -1, -2, -2
1503598218484,0, 0, -1, 7, 0, 2, 2, 2
1503598218499,0, -4, -6, 8, 10, 1, 1, -2
1503598218506,1, -6, -6, 2, 2, 1, -2, -3
1503598218513,3, -5, -11, -5, -5, -4, -1, -2
1503598218529,2, 4, 6, -4, -6, -4, -2, 1
1503598218536,-2, -1, 2, -3, -3, -1, -2, 0
1503598218544,-1, 4, -4, -1, -1, -2, -1, 0
1503598218559,-4, 0, 0, 0, -3, 0, -1, -1
1503598218567,-4, 1, 7, 2, 5, 2, 1, -2
1503598218573,1, -1, -1, -4, 0, 1, -2, -2
1503598218590,-2, -2, -3, 7, 6, 2, -1, -1
1503598218596,1, 1, 0, -4, -9, -1, 1, -1
1503598218611,-2, -6, -8, -6, -6, -3, -2, -2
1503598218618,0, 3, 3, 4, 3, 0, 0, 1
1503598218634,6, -1, -7, 0, 5, -1, 0, 0
1503598218641,0, -3, -3, 4, 5, -1, 0, 0
1503598218649,-1, -2, 0, -4, -5, 0, -1, -1
1503598218657,-1, 0, 2, 2, 5, 2, -1, -1
1503598218671,-2, -6, -5, -5, -6, -5, -3, -1
1503598218678,-4, -2, -1, -2, -3, 1, 0, 0
1503598218686,-5, -1, -1, -5, -9, -5, 0, -1
1503598218701,-5, -3, -7, -6, -18, -5, -4, -1
1503598218709,-2, -2, -1, -2, -4, -2, -2, -2
1503598218716,1, 1, 0, -1, 2, -3, -2, -2
1503598218732,-2, 1, 0, -8, -5, 0, 1, 2
1503598218738,9, 4, -2, 4, 1, 0, 2, 2
1503598218747,4, -4, -3, 2, 4, 3, 1, 0
1503598218762,-5, -4, -10, -4, 4, -2, -2, -1
1503598218769,0, -1, -8, -2, 4, 1, -2, 0
1503598218776,0, -5, 2, -2, -1, -1, -1, -1
1503598218791,-2, -4, 0, -2, -2, -1, 0, -2
1503598218799,-1, 1, -2, -2, 4, 2, 0, -1
1503598218806,-3, -2, -1, 1, -3, -2, 0, 0
1503598218821,-3, 10, 5, 1, -4, -2, -3, -1
1503598218829,0, 0, 0, 1, -6, -4, -2, -1
1503598218836,-5, -7, -4, -7, 2, -1, -3, -2
1503598218852,7, 9, 8, 2, 0, 0, 0, 3
1503598218859,2, -2, -7, -8, -8, -4, 0, -1
1503598218866,-2, 6, 3, -1, -17, -6, -3, -6
1503598218881,-1, -4, 2, 1, -9, -2, 0, 1
1503598218891,-4, -2, -1, -2, -3, 0, -3, -1
1503598218896,-1, -1, -1, -1, -10, -6, 1, -4
1503598218911,-1, 1, 4, 1, 6, 0, 0, -1
1503598218918,2, -2, 1, 2, 9, 2, 1, -3
1503598218927,-4, -6, -15, -5, 4, 2, 2, -2
1503598218941,-4, -10, -10, -2, -1, -2, -3, 0
1503598218949,-2, -9, -5, -3, 1, -1, -1, 0
1503598218959,-7, 4, 15, 8, 4, 1, 0, -6
1503598218971,15, 8, 1, 6, 8, 2, 3, 8
1503598218978,1, -1, 0, 1, 1, 0, 0, 4
1503598218988,-4, 0, 1, 1, -4, -1, -4, -2
1503598219001,-2, -3, -6, -4, 0, -1, -2, -3
1503598219009,-1, -2, 2, 4, 9, -1, 0, -4
1503598219017,2, -2, -4, 0, 26, 9, 0, 3
1503598219032,-3, -1, 1, 1, -1, 0, 0, -5
1503598219039,0, -2, -2, 0, -4, -3, -1, 0
1503598219047,-5, -1, -4, 2, 2, 2, 0, -3
1503598219061,4, 0, -1, -2, -6, -1, -1, 6
1503598219069,8, -2, -4, -4, -4, -2, -1, 0
1503598219076,-4, 0, -1, -1, -2, 0, -1, -1
1503598219094,-6, 3, 4, 1, 2, 0, 0, -2
1503598219099,-1, -1, -1, -1, -3, -3, -2, -3
1503598219107,-3, 1, 0, -4, 0, 1, 1, 0
1503598219121,-6, -2, -1, -2, -12, -4, -1, -5
1503598219131,-3, -16, -8, -5, -4, -3, -4, 0
1503598219137,-3, -6, -8, -4, -2, -3, -2, -2
1503598219151,-1, 3, 8, 1, -1, 0, -2, 0
1503598219159,2, 0, -5, 2, -2, 0, 1, -1
1503598219168,-1, 2, 1, -2, -3, -3, 1, 2
1503598219181,20, 6, 2, 2, 5, 2, -1, 3
1503598219189,-3, 0, 6, 1, 0, 1, -1, -3
1503598219196,-11, -1, 10, 3, 0, 0, -2, -3
1503598219211,-1, 4, 5, 3, 1, 1, 0, -2
1503598219218,1, 3, 0, -2, 0, -1, -1, 2
1503598219227,-2, 4, 0, -3, -2, -2, -2, -1
1503598219241,3, 4, -1, -1, -2, -1, -1, 7
1503598219249,-2, -6, -5, -6, -2, -2, 0, -1
1503598219256,-5, -1, 3, 2, 1, 1, -1, -6
1503598219271,0, 0, 0, 3, 8, 2, -2, 0
1503598219278,-2, -1, -6, -4, -4, -5, -3, -3
1503598219286,7, -3, -17, -3, -7, -3, -2, -6
1503598219302,-3, -5, -5, -3, -2, -2, -3, -2
1503598219309,-8, -8, -7, -4, -3, -2, -7, -10
1503598219316,6, -2, -2, -2, 0, -1, 3, 8
1503598219331,-9, -2, 0, 1, -1, -2, 3, 4
1503598219338,-4, 3, 5, 0, 0, 0, -2, -8
1503598219346,7, 0, 1, 0, -3, -2, -2, 4
1503598219361,0, 0, 3, -1, -13, -4, 0, 1
1503598219369,2, 7, 10, 5, 0, 3, 3, 4
1503598219376,-3, 0, 0, -2, 1, 1, -2, -2
1503598219393,0, 1, 2, -2, -6, -2, 2, 0
1503598219394,-6, 1, -6, -4, -1, -2, -3, -3
1503598219398,1, -5, -3, -1, -1, 0, 2, -3
1503598219406,-3, -18, -18, -6, -1, -1, -2, -8
1503598219421,-5, -1, -2, -1, 0, 0, -1, -10
1503598219429,-1, 2, 5, 0, 1, -2, 1, -3
1503598219436,-2, 1, 3, 1, 2, 1, 0, 2
1503598219451,-4, -2, -1, -1, -3, -2, -2, -3
1503598219461,-1, -5, -3, -1, 3, 0, 0, 2
1503598219466,1, 3, 6, -1, 0, 2, 3, 6
1503598219481,0, 0, 3, 4, 3, 1, 0, 1
1503598219489,0, 2, -1, 1, 0, 1, -2, 0
1503598219498,-1, -3, 1, 1, 12, 2, -2, -1
1503598219511,-2, -11, -11, 0, 4, 1, 3, 3
1503598219518,-1, -6, -10, -2, -3, -1, 0, -1
1503598219534,-3, -9, -2, -4, -8, -2, -1, -2
1503598219541,0, 2, 2, 0, -3, -2, 1, -3
1503598219549,2, -1, -4, -3, -4, -2, 1, 2
1503598219563,-3, -2, -3, -3, -3, -2, -2, -3
1503598219571,-3, 10, 19, 6, 10, 0, -2, -1
1503598219578,-3, -12, -12, -4, 6, -2, -1, 1
1503598219593,0, -17, -29, -5, -7, -1, -3, -2
1503598219601,0, -9, 1, -3, -4, -1, 0, 1
1503598219609,11, 17, 24, 4, 0, 2, 2, 10
1503598219623,-2, 31, 31, 12, 3, 3, -1, -3
1503598219631,-2, 4, 3, -4, -4, -2, -1, -3
1503598219638,3, 5, 5, 14, 34, 9, 3, 4
1503598219653,-2, -3, -2, -3, 2, -3, -2, -2
1503598219662,11, 16, 24, 3, -11, -2, 3, 4
1503598219669,4, -2, -11, -4, -1, -2, -4, -6
1503598219683,-12, -23, -11, -6, -10, -1, -3, -5
1503598219691,-5, -5, 2, -2, -5, -1, -3, -3
1503598219698,-5, -9, -16, -7, -5, -4, -2, -6
1503598219714,-11, 2, -3, -2, -2, -2, 1, 1
1503598219721,-4, 8, -12, -4, -5, -2, -1, -1
1503598219731,14, 16, 13, 7, 3, 1, -1, -1
1503598219743,-7, -13, -23, -13, -10, -4, -3, -5
1503598219751,-2, 21, 37, 13, 4, 0, -2, -5
1503598219758,-6, -14, -15, -11, -9, -5, -6, -6
1503598219774,-5, -14, -10, -2, 1, 2, 0, -2
1503598219781,2, -2, 4, -2, -1, -1, 0, 2
1503598219789,4, 2, 0, 3, 0, 0, 1, 3
1503598219806,5, 6, -7, -1, -4, -1, 0, 1
1503598219811,-6, 8, 3, 2, 1, 1, 0, 3
1503598219818,-14, -8, -4, -1, 4, 1, 0, 2
1503598219819,-3, 4, 9, 3, -1, -1, 0, -8
1503598219838,4, 8, 15, -1, -2, -1, -2, -6
1503598219844,8, 15, 5, 1, -3, -3, -3, 4
1503598219849,0, -9, -21, -5, 0, 1, 2, 0
1503598219863,0, -8, 1, -3, -3, -2, -1, 0
1503598219871,-5, -31, -19, -6, -3, -5, -3, 1
1503598219878,13, 12, 2, 3, 0, 3, 1, 4
1503598219897,-4, -4, -9, -6, -2, 0, -2, -4
1503598219901,-2, 0, -1, -1, -6, 1, 2, 4
1503598219909,-2, -7, -2, 0, 17, 5, 1, -1
1503598219923,4, 8, 3, 3, 5, 0, 0, 3
1503598219931,-1, 9, 5, -1, -6, -4, 0, -1
1503598219938,27, 8, 8, 4, 0, 3, 6, 28
1503598219953,-1, -2, -6, -3, -4, -3, -3, -5
1503598219963,-8, -1, -11, 2, -1, -1, -3, -7
1503598219969,-1, 0, -3, -2, -4, -1, -1, 0
1503598219983,-11, -15, -7, -6, -1, 0, -3, -9
1503598219991,-2, -3, -4, -2, -8, -5, -2, -3
1503598219999,-12, -16, 2, -2, 7, 0, -4, -6
1503598220013,-2, 8, 13, 2, -2, -1, -2, -3
1503598220021,-2, 2, 19, 3, 0, 0, 1, -2
1503598220030,1, 1, -3, -1, -4, -1, -1, 2
1503598220043,-14, -14, -20, -7, -1, -3, -3, -9
1503598220051,-3, -2, -5, 2, 2, 1, 1, 0
1503598220058,-6, -7, -6, -4, -2, -2, -2, 1
1503598220073,3, 0, 3, 0, 2, 1, -1, -2
1503598220081,0, 4, 4, 0, 1, 0, -2, -6
1503598220098,0, -5, -8, -5, -3, -3, -1, 0
1503598220103,0, 9, 8, 7, 3, 1, 1, 0
1503598220111,5, 3, -2, 0, -3, -2, 0, 2
1503598220125,-1, 3, 7, -2, -1, -2, 1, -1
1503598220134,-5, -13, -6, -4, -1, 2, -2, -5
1503598220135,-4, -2, -7, -3, 0, -2, -1, -2
1503598220141,2, -3, -6, -3, -3, -4, -1, -2
1503598220149,-1, -4, 0, 2, 8, 4, 1, 4
1503598220165,-1, 0, -5, -6, -17, -7, -7, -7
1503598220171,2, 1, 1, -1, 11, 4, 0, 2
1503598220179,-7, -5, 2, 3, 0, -1, -1, -2
1503598220194,-2, 1, 10, 1, -9, -6, -3, -4
1503598220202,5, -1, -8, -3, 0, 0, 0, 1
1503598220209,0, 2, 0, -1, 0, 1, 1, 3
1503598220223,-2, -2, -7, -1, -1, -2, -4, -4
1503598220232,2, 6, -4, -1, 3, 3, 2, 3
1503598220239,4, 4, 6, 5, 5, 3, 1, 1
1503598220254,-2, -6, -1, -3, -5, -1, 0, -5
1503598220261,-1, 4, 0, 2, 6, 1, 0, 1
1503598220271,3, 10, 18, 9, -1, -1, -1, -6
1503598220283,-2, -1, 11, 1, -1, 0, 0, -2
1503598220291,0, -3, -5, -4, -5, -4, -1, 7
1503598220299,0, 0, -4, -6, -6, -4, -2, -1
1503598220314,-5, -3, 1, 0, -1, -1, 2, 0
1503598220321,1, -2, -6, 0, 17, 6, -2, 0
1503598220330,-1, -2, -8, -3, -3, -3, 0, -1
1503598220343,-2, 1, 3, -3, -9, -4, 0, -1
1503598220351,0, -3, -4, -1, 3, 1, -1, 3
1503598220359,-3, -6, -6, -3, -3, -1, -3, -5
1503598220374,-8, -4, -6, -3, -1, -1, -5, -12
1503598220381,4, 0, -4, 3, 1, 2, 2, 10
1503598220389,-9, -7, -4, -1, -4, -2, -2, -4
1503598220403,0, 2, 1, -2, -3, 1, 2, 0
1503598220411,8, -2, -2, -3, 1, -1, -2, -2
1503598220418,1, 3, 9, 0, -5, -1, 1, 2
1503598220434,-4, -2, 0, -1, -2, -1, 0, -2
1503598220441,-2, -4, -4, -3, -3, -3, -3, -7
1503598220449,7, 6, 9, 2, 1, 1, 3, 8
1503598220466,-9, -4, -3, -1, 0, -2, -7, -29
1503598220471,-3, 7, 3, 0, -1, 0, 0, -16
1503598220485,-4, -6, 2, 4, 1, 0, -3, -4
1503598220493,-6, 0, -2, 3, 0, 0, 3, -4
1503598220501,-1, -17, -8, -10, -3, -5, -2, -10
1503598220523,5, 6, 0, 3, 1, -1, 1, 18
1503598220533,-7, -1, -3, 1, -1, -2, -2, -12
1503598220545,-1, -1, -6, -3, -2, -2, 0, 4
1503598220553,0, 4, 3, 6, 6, 0, -3, -3
1503598220561,1, 2, 0, -1, -9, 0, 4, 11
1503598220576,1, -3, -2, -5, -13, -5, 1, 7
1503598220583,12, 6, 1, 0, 1, -3, -1, 9
1503598220591,0, -6, -9, 0, -3, -2, -4, -2
1503598220605,-3, 4, 5, 1, 0, 0, 0, 5
1503598220613,-2, -7, -5, -3, 3, -1, -2, 1
1503598220621,1, 9, 10, 3, 5, -1, 0, 3
1503598220636,-2, -5, -7, -6, -1, 0, 0, 2
1503598220643,-3, 14, -4, -6, -1, -3, -3, -5
1503598220651,4, 1, 8, 1, 1, 0, 0, 2
1503598220667,-3, -5, -6, -2, 2, -1, 1, 0
1503598220673,-5, -3, -2, -2, -3, 0, -2, -10
1503598220674,6, -1, -2, -4, -3, -3, -2, 10
1503598220681,3, -7, -3, 0, -4, 0, 0, 2
1503598220696,-3, -4, -8, -11, -12, -1, -4, -1
1503598220703,-5, -3, -4, -2, 10, 1, -2, -10
1503598220711,3, 1, 2, -2, 1, -1, 0, 6
1503598220725,-5, -4, -3, 3, -2, -2, -2, -1
1503598220734,-3, -5, -11, 2, 4, 0, 1, -3
1503598220741,0, -10, -7, -3, 0, 1, -3, -4
1503598220756,0, 5, 7, 6, 0, 1, 3, 0
1503598220763,-1, 17, 5, 4, -2, 1, 3, 4
1503598220773,0, -4, -3, -2, 0, -1, 0, 6
1503598220785,1, -7, -5, -4, -2, -2, 0, 1
1503598220793,-1, 2, 5, 3, 1, -2, -3, -4
1503598220801,-1, -5, -3, -4, -4, -1, 1, 1
1503598220816,-10, -2, -1, 1, 2, 0, -5, -6
1503598220823,-1, -3, -3, 1, -9, -4, -5, -4
1503598220831,-2, 1, 2, 15, 17, 5, 1, -6
1503598220845,-2, -8, -15, -10, -9, -4, 0, -5
1503598220853,1, -4, -5, -9, -7, 0, 0, 2
1503598220861,1, 0, 6, 1, 3, 1, 0, 2
1503598220876,3, 1, -2, -2, -3, -2, -1, 0
1503598220883,1, -2, -9, -5, 2, 0, 1, -1
1503598220891,-3, -5, 0, -2, -3, -3, 1, -1
1503598220905,1, 3, 0, 6, 4, -2, 0, 2
1503598220913,-1, -1, -4, 0, -1, -1, 1, -2
1503598220921,3, 9, 11, 4, 0, 2, -1, 0
1503598220936,-2, 1, 0, -2, -2, 0, -1, -9
1503598220943,-2, 1, 3, 2, 2, -3, -3, -2
1503598220951,-4, -1, -2, -6, -4, -3, -1, 0
1503598220965,-2, -2, 6, 12, 29, 8, 1, 2
1503598220974,2, 2, 4, 6, 5, 1, 1, 3
1503598220981,-3, -2, 4, -1, -7, 0, -2, -3
1503598220996,1, -3, -5, -6, -3, 0, 0, 2
1503598221003,-4, -8, 4, 1, -4, -2, 0, -4
1503598221011,0, -1, 8, -1, -5, -1, -3, -2
1503598221025,-5, -9, -11, -9, -6, -3, 0, -5
1503598221035,5, 6, 8, 2, 1, -2, -2, -1
1503598221041,1, 0, -3, -4, -2, -4, -4, -1
1503598221056,-4, -1, 0, 1, -1, -1, -3, 0
1503598221063,5, 2, -4, -3, -6, 1, 4, 16
1503598221071,-5, -1, -3, -4, -2, -1, -2, -4
1503598221085,-4, 0, -1, 0, -1, -2, 0, -5
1503598221093,3, -1, -2, 0, -1, -2, -2, 7
1503598221102,-4, -2, -4, 3, -4, 0, -1, -5
1503598221116,0, 2, -4, -2, -7, -2, -4, -4
1503598221123,-1, -1, -2, -4, -5, -3, -2, 0
1503598221131,4, 13, 2, 4, 2, -1, 1, 2
1503598221145,2, 2, 0, 0, 0, 0, 0, -4
1503598221153,-1, -1, 0, 1, 0, 0, -1, -2
1503598221161,-4, 4, 4, -1, -2, 0, 0, -4
1503598221176,1, -4, -4, -2, -1, 0, 0, 3
1503598221183,-1, -3, -2, -2, 0, -2, -1, -1
1503598221191,-2, -9, 1, 2, 1, 0, -1, 1
1503598221207,3, 21, 23, 1, -2, -1, -1, 0
1503598221213,0, -4, -9, -4, -1, 2, -1, -2
1503598221221,7, 15, 19, 8, 5, 4, 3, 8
1503598221236,-7, -9, -4, -3, 2, -1, -2, -2
1503598221243,-7, 0, -9, -1, 1, 1, -1, -3
1503598221251,0, -7, -8, -8, -8, -5, -2, -3
1503598221265,-3, -16, -11, -8, -2, -4, -1, -3
1503598221273,10, 24, 10, 2, -7, -5, 1, 4
1503598221281,-3, -9, -8, 0, -1, -1, -5, -4
1503598221296,-7, -21, -14, -4, 3, 2, -1, -4
1503598221303,2, -14, -9, 0, -2, -1, -3, -3
1503598221311,-1, -10, -9, -3, 7, 2, 0, 2
1503598221325,0, 9, 17, 4, 0, -2, -1, 1
1503598221333,-6, -15, -11, -4, -3, -5, -4, -4
1503598221341,-3, 13, -6, -2, -1, -1, 0, -1
1503598221356,-1, -2, 2, -3, -3, -2, -2, -6
1503598221363,-3, -10, -19, -7, -9, -3, -2, -5
1503598221380,-4, 0, -2, -3, 11, 3, -1, 0
1503598221385,4, 3, 6, 5, 8, 3, 1, 1
1503598221393,0, -3, 3, -2, -6, -3, 0, -1
1503598221408,3, 0, 6, 6, 1, 3, -1, 5
1503598221416,0, 6, -1, 1, -3, -2, 0, -2
1503598221423,4, 0, 0, -4, 4, -1, 0, -4
1503598221439,5, 21, 25, 9, 3, 5, 4, 6
1503598221446,-8, -34, -30, -13, -7, -4, -4, -10
1503598221454,16, 16, 9, 4, -3, 0, 3, 5
1503598221470,-1, -11, -1, -1, 2, 1, 0, -2
1503598221476,-6, -9, -9, 0, -6, -4, -3, -3
1503598221483,-2, -3, -6, -4, -5, -3, -1, 2
1503598221499,-1, 0, -1, -2, 4, -4, -1, -3
1503598221505,-5, 5, 5, -3, -3, -2, -1, -1
1503598221513,-9, -11, 0, -5, -12, -3, -1, -5
1503598221528,1, -6, -2, 1, 5, 1, 1, 0
1503598221539,-5, -1, 9, 3, 3, 2, -2, 0
1503598221543,-6, -3, -2, 3, -3, 1, 0, -5
1503598221558,-3, -6, -7, -1, 0, 1, -1, -4
1503598221565,0, 9, 5, -2, -8, -3, 0, 0
1503598221574,-5, -3, -8, -2, 9, 0, -4, -10
1503598221588,0, 7, 5, -2, -2, -1, -2, -2
1503598221596,1, -3, -4, -7, -5, 0, -1, 4
1503598221605,-1, 2, 7, -2, 1, -2, -1, 2
1503598221618,5, 4, -10, -1, -1, -3, -1, 2
1503598221625,0, 3, 5, 3, 1, 1, 2, 2
1503598221633,0, 0, -7, -1, 0, 1, -3, 0
1503598221648,1, 5, 6, 5, 4, 2, 0, -2
1503598221656,-4, 0, 2, -1, -10, -8, -4, -4
1503598221663,-3, -2, -2, -2, -8, -2, 0, -1
1503598221678,5, 18, 27, 10, 5, 4, 4, 5
1503598221686,-2, -5, 5, -1, 2, 2, 3, -1
1503598221693,-2, -1, -9, -4, -4, -1, -2, 0
1503598221708,5, 5, 6, 4, 5, 1, -1, 4
1503598221716,-3, -9, 2, -1, 2, 1, 0, -3
1503598221723,-1, -5, -20, -6, -3, -3, -3, 0
1503598221739,-7, -1, -2, 0, 10, -1, -1, -1
1503598221745,3, 3, -1, 1, 3, 0, 1, 2
1503598221761,2, 1, -9, -5, -2, -6, -6, -5
1503598221768,-2, -3, -5, -8, -15, -10, -4, -1
1503598221777,0, -3, -7, -5, -10, -5, -1, 0
1503598221783,3, 6, -2, -3, -3, 0, -4, -3
1503598221798,-3, -4, 7, -6, -12, -3, -2, -1
1503598221799,-9, -5, -3, -2, -1, 2, -1, 0
1503598221806,-2, 0, -7, 0, 2, 0, 1, 2
1503598221814,1, -7, 0, -1, 1, 2, 2, 1
1503598221829,-1, -6, -3, -1, 0, 1, -1, -5
1503598221836,4, 3, 3, 2, -2, -2, 0, 0
1503598221851,-2, 1, 0, 2, -12, -3, 0, -2
1503598221858,5, 1, -2, -4, -3, 2, 5, 9
1503598221866,0, -1, 6, 9, 7, 1, -3, -2
1503598221874,-2, 0, -3, -3, 2, 1, -4, -6
1503598221889,-2, -4, -4, -1, 3, -1, 1, -2
1503598221897,0, 9, -2, 3, 2, -1, 0, -2
1503598221911,-1, -8, -7, -2, 7, -1, -2, 1
1503598221918,-2, -3, 0, -1, -6, -3, 0, 4
1503598221926,1, 6, 8, 1, -3, -3, -2, 0
1503598221933,-5, -6, 0, 0, 1, -1, 1, -6
1503598221949,2, 3, 8, -1, 3, 0, 2, 11
1503598221956,1, -10, 0, -4, -6, -4, -4, 3
1503598221974,1, 8, 8, 4, 3, 2, 0, -3
1503598221979,-4, -5, -4, -4, -29, -13, -6, -7
1503598221986,2, 0, -4, 1, 3, 1, -4, -5
1503598221993,-4, 1, -2, -3, -4, -1, 0, -3
1503598222009,-7, -3, -3, -5, -3, -3, -3, -11
1503598222016,0, 0, 2, 4, 8, -1, 0, -1
1503598222031,-2, -9, -7, -7, -5, -3, -1, 1
1503598222040,-2, 5, 2, 2, 8, 1, -1, -4
1503598222046,9, -2, -9, -8, -12, -25, -9, 33
1503598222053,1, -1, -2, -9, -10, -7, -4, 7
1503598222069,-8, -6, -2, 2, -7, 1, 2, -9
1503598222076,-7, -15, -23, -13, 5, 1, -3, -5
1503598222091,-1, 5, -11, 2, 8, 8, 4, -6
1503598222098,0, -3, 1, 4, 7, 8, 5, -2
1503598222108,-1, -1, 6, 3, 4, 4, 1, -4
1503598222113,3, 6, 3, 1, -5, 0, -1, 1
1503598222129,-3, -3, 2, -2, 1, 3, 1, -6
1503598222136,16, 7, 9, 5, 5, 1, 4, 15
1503598222151,-13, -9, -2, 1, 2, 0, -4, -15
1503598222158,-2, 6, 6, 7, 8, 6, 4, 8
1503598222166,-2, -4, -2, -4, -5, -2, -1, 4
1503598222174,6, 26, 6, 12, 9, 3, 1, -8
1503598222189,21, 12, -1, -4, -3, 1, -2, 7
1503598222196,-4, -14, -15, -8, -1, 1, 1, 0
1503598222211,6, 0, 2, 3, -1, -2, 0, 6
1503598222218,3, 3, 5, 1, -1, -1, 0, -4
1503598222226,-8, -7, -3, -6, 0, -4, -2, 6
1503598222233,-8, -7, 1, 1, -3, -3, -7, -12
1503598222250,-15, -7, -10, -4, -4, -3, -3, -1
1503598222258,-1, 9, 15, 1, 1, 5, 0, -7
1503598222271,2, 9, 2, 6, 7, 6, 4, -1
1503598222279,1, 3, 15, 5, 3, -1, 1, 2
1503598222286,0, 1, 5, 0, 12, 5, -1, -12
1503598222293,5, -6, -8, -3, -3, -2, 1, 10
1503598222309,-5, -3, -1, -1, -4, -1, 1, -8
1503598222317,-3, -3, 2, 8, 17, 8, 1, 2
1503598222331,2, 1, -1, -3, 0, 0, 2, 1
1503598222332,1, -1, 6, 0, 1, 2, -1, -2
1503598222338,-3, -7, -5, -9, -10, -5, -4, -3
1503598222346,11, 1, -3, 0, -4, 0, -1, 4
1503598222361,-6, -5, 1, 2, -3, 0, -2, -4
1503598222369,-7, 1, 2, -3, -4, -4, -3, -7
1503598222376,17, 3, 4, 6, 2, 0, 4, 15
1503598222377,-8, -6, -8, -5, -1, 0, -3, -8
1503598222391,-3, -7, -11, -2, -1, 1, 1, -2
1503598222398,3, 4, 10, 6, 1, -1, -2, 2
1503598222408,-2, -2, 1, -2, 1, 0, -2, -1
1503598222421,-1, -4, -10, -5, -5, -2, 1, -3
1503598222429,2, 5, 0, 3, -1, 0, 0, -2
1503598222436,-4, -3, -3, -2, -4, -3, 0, -3
1503598222451,4, -1, 0, -2, -3, -1, 5, 26
1503598222458,1, 1, -4, -3, -1, 0, -1, 8
1503598222466,-4, -3, 2, 0, -2, 0, 1, -7
1503598222481,-2, -2, 0, -2, -1, -1, -4, -5
1503598222489,-1, -4, -6, -3, -3, -2, -1, -3
1503598222496,1, -1, 1, -2, 0, -1, 1, -10
1503598222511,-4, -4, -5, -5, -2, -1, -3, -7
1503598222518,3, 8, 4, -1, -1, 0, -2, 3
1503598222526,-2, -2, 2, -1, -5, -2, -2, -5
1503598222543,-2, -5, -6, -2, -4, -2, -1, -1
1503598222549,2, 19, 22, 7, 3, 1, 3, 16
1503598222556,-3, -4, -5, -5, -3, -1, -3, -3
1503598222571,-1, -4, -4, -1, -1, -1, -2, -4
1503598222579,-1, 0, 2, 1, 1, -2, 0, -1
1503598222587,-1, 0, -3, -3, -1, -2, -3, -10
1503598222601,2, -2, -5, -3, -3, -2, -4, -5
1503598222610,-2, 2, 3, 1, 0, 0, 0, 2
1503598222611,-2, -2, -5, -3, -1, -1, -1, -2
1503598222616,-6, -10, -12, -3, -2, -1, -1, -1
1503598222631,2, -3, -5, 0, 1, 0, -2, 0
1503598222638,0, -5, -6, -1, -1, 0, -1, 3
1503598222646,-4, 1, -1, -7, -6, -2, -3, -3
1503598222647,-1, -3, 0, -1, 2, 0, -1, -3
1503598222661,2, 8, 3, -1, 0, -1, 2, -1
1503598222669,0, 2, 4, 2, -3, 1, -1, -3
1503598222677,-3, -2, 1, 2, 1, 0, -2, -8
1503598222691,4, -5, -3, -2, -2, 2, 0, 2
1503598222698,4, 4, 4, 2, 2, 2, 0, 1
1503598222706,-5, -3, 0, -2, -3, -2, -1, -6
1503598222721,3, 2, 1, -2, -1, -1, 2, 1
1503598222729,-1, -1, -3, 1, -1, -2, -2, -4
1503598222736,-2, -4, -1, -1, 0, -2, 0, 0
1503598222752,-6, -3, -3, -3, 0, -1, -1, -2
1503598222758,-3, 0, 2, 4, 20, 5, 0, 1
1503598222766,3, 1, -1, -1, -1, 1, -1, -1
1503598222781,5, 10, 4, 0, -10, -2, 2, 11
1503598222789,-2, -1, 0, 0, 2, 0, 1, -3
1503598222796,-2, -3, -2, -3, -4, 0, -1, -1
1503598222812,-4, 1, 0, 2, -1, -1, -2, 0
1503598222819,-6, -1, 2, 0, -1, -3, -3, 1
1503598222826,-1, -7, -7, -3, -3, -2, -2, -1
1503598222841,1, -1, -3, 1, 5, 1, 1, 0
1503598222851,-14, -3, -4, -3, -2, -3, -3, -16
1503598222858,-1, 1, 0, 0, -5, 0, -2, -5
1503598222871,8, 1, -1, -1, 2, 0, 2, 4
1503598222879,0, 0, 1, -2, -7, -3, 0, -1
1503598222887,0, -4, -6, -3, 0, 0, 2, 2
1503598222901,7, -7, -4, -3, -3, 0, 3, 8
1503598222909,2, 1, 4, -1, -2, 0, -3, 3
1503598222916,-6, -1, -3, -2, 0, -1, -3, -5
1503598222931,0, -1, -3, -1, -2, 0, -1, -4
1503598222938,-3, -2, 1, -2, -3, -1, -1, -3
1503598222947,13, 7, 1, 0, 0, 1, 7, 22
1503598222961,-3, -7, -8, -4, -2, -1, -2, -4
1503598222969,3, 0, 0, 0, -1, -3, -1, 10
1503598222976,3, 1, 0, 1, -1, -1, -3, -6
1503598222991,-4, -1, -1, 0, 1, 0, -5, -9
1503598222998,0, 0, 0, -3, -2, -3, -4, -1
1503598223006,-5, 0, 1, 2, 2, 2, 0, -12
1503598223021,0, -1, -2, -2, -1, 0, 2, -1
1503598223029,-1, 0, 1, 2, -1, 0, -4, -1
1503598223036,-1, 0, 0, -1, -3, -1, 0, 2
1503598223052,-3, -4, -4, -5, -3, -3, 1, -1
1503598223058,-7, -1, 1, 0, 0, -2, -3, -8
1503598223066,-6, -3, -3, -1, 0, 0, -3, -13
1503598223081,-3, 6, 2, -2, -1, -2, -2, 2
1503598223089,-4, -5, -5, -6, -4, -4, 1, -3
1503598223096,-3, -6, -4, -1, 0, 0, 2, 2
1503598223118,3, 0, 0, 0, -2, 0, -2, -1
1503598223119,0, 0, 1, 0, 0, 3, 1, 0
1503598223126,-2, 2, 4, 2, 2, -2, 0, 4
1503598223141,0, -1, -1, 1, 0, -2, -3, -3
1503598223150,0, -2, -4, -4, -1, -1, -1, -4
1503598223156,1, -1, 0, 1, -2, 1, 2, 1
1503598223171,-3, -2, -3, -2, 0, 1, -3, 1
1503598223182,-3, -4, -5, -5, -1, 0, -1, -1
1503598223183,-3, -4, -3, -3, -1, -2, -2, -6
1503598223186,-4, -6, -3, -1, 1, 0, -3, -7
1503598223201,-1, -6, -6, -5, -4, -3, -3, 0
1503598223209,11, -2, -4, 2, -1, 0, 4, 17
1503598223216,-3, 2, 4, 2, 2, -3, 1, 3
1503598223231,-5, -4, -3, 3, 0, -1, -1, -4
1503598223238,7, 2, 2, 3, 2, 2, 2, 9
1503598223248,0, 0, -1, -3, -2, -1, 0, 2
1503598223261,1, -3, -6, -3, -2, -1, 0, 0
1503598223269,-2, 0, 6, 1, 0, 0, 1, -1
1503598223284,2, 6, 7, 6, 0, -1, -4, -10
1503598223291,-1, 1, -3, -4, -1, 2, 2, -2
1503598223298,0, -3, -3, -1, 0, 0, 1, -1
1503598223314,-1, 2, 3, 1, -3, -2, -4, -6
1503598223322,-2, -2, -5, -4, 0, 0, -3, -5
1503598223329,-1, -1, 0, -5, -3, -3, -1, -2
1503598223343,0, 3, 3, -2, -1, -2, 0, 1
1503598223352,5, 0, -5, 0, 1, 0, 1, 8
1503598223358,0, 3, 5, 9, 2, -4, -4, 1
1503598223373,0, 2, 2, -3, -1, -3, -2, 8
1503598223381,0, 1, -2, -7, -1, 0, 1, 0
1503598223389,-4, -3, -3, -4, -4, 0, 2, -1
1503598223403,-7, -5, -1, -2, -2, 1, 0, 1
1503598223411,1, 0, -1, 2, 2, 1, -2, -7
1503598223413,-4, -2, -1, 0, 2, -3, -4, -9
1503598223418,-3, 5, 8, 2, -1, 2, -1, -6
1503598223433,7, -3, -2, 0, -1, 0, 3, 10
1503598223441,-4, -5, -6, -3, -3, -3, -1, 4
1503598223449,-4, -6, -5, 3, 3, 0, -5, -1
1503598223463,5, -4, -5, -6, -3, 0, 0, 17
1503598223471,-6, -2, 1, 2, -2, -1, -6, -29
1503598223481,-6, -3, -6, -6, -2, -2, 0, -12
1503598223493,-2, 7, 3, -1, 0, -2, -1, -5
1503598223501,-3, 1, 2, 0, -1, -3, -2, -16
1503598223509,1, 3, 3, -4, 1, 3, 4, 10
1503598223523,0, 0, 4, 2, 0, -1, -4, 3
1503598223538,4, 9, 3, 2, 0, 0, 3, 8
1503598223539,-1, -4, -2, -4, -3, 0, 0, -7
1503598223540,1, -4, -4, 1, 1, -2, -2, -5
1503598223553,-14, -6, -1, 0, -4, -3, -4, -18
1503598223561,-10, -4, -7, -5, 1, -1, -1, -20
1503598223569,-5, 1, -1, 1, 1, 1, -1, -1
1503598223584,-3, -5, -4, -2, -1, -1, -1, 0
1503598223592,-2, -5, -5, -4, -2, -1, -1, 3
1503598223598,5, 2, 1, 2, -2, 1, -2, 4
1503598223615,7, -3, -6, -3, -3, -2, 1, 18
1503598223621,-5, -1, 0, -2, -1, -3, 3, 0
1503598223629,-3, 1, 3, 0, -2, -2, -4, -9
1503598223643,1, -3, -6, -2, -2, 0, -1, -19
1503598223653,5, 4, 5, 5, 2, 1, -2, 6
1503598223658,-3, -1, 1, 1, 1, -2, -2, -1
1503598223673,-5, 0, 2, 1, 2, 1, 0, -13
1503598223683,3, 2, -4, 0, 0, 1, 1, 14
1503598223689,2, -3, -4, -2, 1, -1, 3, 8
1503598223703,3, -6, -3, 0, 0, 2, 4, 14
1503598223711,-2, 8, 9, 1, -2, -2, -4, -14
1503598223721,0, 8, 3, 2, 0, 2, 3, 12
1503598223733,11, 0, -1, 0, 0, -4, -2, 8
1503598223741,3, 6, 4, 0, -2, 0, -5, -1
1503598223751,-5, -9, -8, -5, -5, 0, -1, -7
1503598223763,17, -2, -5, -2, -5, 1, 5, 30
1503598223771,0, 0, 1, 3, 0, 0, 0, -2
1503598223778,-8, -1, 2, 0, 1, -3, -3, -12
1503598223793,-2, 1, 4, 1, 6, -2, -1, 11
1503598223801,-5, -1, 3, 2, 6, -3, -3, 0
1503598223809,-6, -5, -8, -7, 2, 0, -2, -11
1503598223824,-7, -6, -6, -4, -2, -1, -4, -12
1503598223831,6, 1, 2, -1, -3, 0, 1, 10
1503598223838,-3, -4, -4, -4, -2, -2, 0, -7
1503598223854,-2, -2, -2, 2, -5, -3, -2, -2
1503598223861,-2, -3, -3, 1, -1, 2, -2, -15
1503598223869,-1, -2, -1, 0, -4, -1, -3, -2
1503598223884,-5, -4, -5, -4, -5, -3, -3, -7
1503598223891,5, 16, 7, 3, 2, 1, 0, 1
1503598223898,-1, 2, 0, 0, -3, 0, -2, -3
1503598223913,-10, -11, -7, -2, -5, -2, -1, -4
1503598223921,-3, -7, -10, -6, -2, -2, 0, 3
1503598223936,-7, -7, -4, -4, -2, -1, -2, -7
1503598223943,-1, -2, 1, -1, 2, -2, -1, -5
1503598223958,-1, -3, -2, 2, 3, 4, 8, 14
1503598223959,2, 2, -1, -2, 0, -3, -2, 3
1503598223960,17, 8, 1, -5, -3, -1, 3, 27
1503598223973,2, -2, 1, 3, 1, 1, 2, 5
1503598223984,-12, -2, 0, 2, 0, -1, -3, -17
1503598223989,6, -8, -3, -5, -1, 0, -2, -4
1503598224004,0, 1, 3, 2, 0, -2, -4, -5
1503598224011,-1, -3, -4, -7, -3, 3, 3, 5
1503598224019,-3, 4, 3, 2, 0, 2, 6, 16
1503598224033,2, 3, 2, 10, 31, 6, -2, -16
1503598224041,-3, -3, 0, 0, 3, 0, -3, -4
1503598224052,-8, -1, 0, -3, -10, -4, -6, -24
1503598224064,-2, -4, -3, -1, -1, -2, -1, 7
1503598224072,2, 2, -2, -3, -6, -1, -1, 8
1503598224087,-2, 4, -6, -1, -6, -1, -2, -5
1503598224093,4, 0, -2, -1, 0, 1, 5, 20
1503598224101,-2, 3, 1, 1, 1, -2, -4, -12
1503598224109,4, 1, 1, 0, -4, -4, 1, 3
1503598224124,3, 2, 8, 7, 6, 4, 0, 3
1503598224135,-9, -4, 0, -3, -6, -4, -4, -3
1503598224138,-1, -3, -2, -6, -3, -2, -3, -15
1503598224154,-3, -3, -6, -2, -4, -2, -5, -6
1503598224161,3, 4, -2, 0, 0, -1, 0, 5
1503598224169,0, -1, 0, -1, -2, -2, -2, 1
1503598224185,2, -3, -1, 1, -1, -2, -2, 4
1503598224191,3, 0, 0, 2, 7, 1, -1, 2
1503598224205,-6, -6, -8, -13, -32, -5, 0, -8
1503598224213,3, 4, 9, 15, 5, 12, 4, -12
1503598224221,4, -2, 0, -3, 5, -2, -1, 8
1503598224236,-4, -2, -4, -5, -7, -5, -1, 2
1503598224244,0, 1, -1, -2, -5, -3, -2, -4
1503598224253,-1, -1, 0, -2, 1, -2, -1, 2
1503598224266,-6, -14, -10, -3, 2, -2, -2, -4
1503598224274,-1, 0, -1, -3, -1, -2, -1, -1
1503598224281,-4, 0, 0, 1, 5, 1, 0, -4
1503598224296,-3, -1, 3, -1, -6, -3, -2, -2
1503598224303,-1, -3, 0, 1, 7, 2, 1, 0
1503598224311,1, 4, 1, -4, -9, -5, 0, 3
1503598224325,4, 2, 4, 5, 7, 3, 3, 2
1503598224333,-5, -2, -4, -3, -12, -6, -3, -5
1503598224341,0, 3, 2, -1, -1, -1, -1, -1
1503598224356,-3, -4, -4, 0, 13, 3, -2, -2
1503598224363,1, 5, 5, 6, 2, 1, -1, 2
1503598224379,0, -1, 0, -4, -4, -1, 1, 0
1503598224387,-1, -1, -2, -1, -3, -1, -1, 2
1503598224393,-4, -4, -2, -2, 0, -3, -3, -2
1503598224394,-2, 0, -1, -1, -3, -3, -1, -4
1503598224401,-1, 0, -2, -4, -6, -4, 0, -1
1503598224418,-2, -3, -5, -1, 7, 0, -1, 1
1503598224419,0, -3, -1, -2, 1, 1, 0, 1
1503598224424,-1, -3, 0, 0, -1, 0, 0, 0
1503598224431,4, 19, 1, 5, 2, 1, 0, 0
1503598224445,-3, -7, -7, -5, -4, -6, -4, -5
1503598224456,-5, -19, -20, -13, 11, 3, -2, 0
1503598224461,-1, 5, 3, 0, 5, -1, -2, -4
1503598224476,-2, 2, 1, -4, -15, -5, -1, 1
1503598224488,-1, -4, 0, -2, 0, 0, -1, -4
1503598224491,2, 8, 11, 1, 0, -2, 0, 4
1503598224505,0, -1, -1, 1, 2, 3, 2, 4
1503598224513,0, -1, 1, 3, 1, 0, -3, -2
1503598224523,0, 1, 4, -2, -2, -3, -1, 1
1503598224536,-1, -10, -6, -2, -1, -5, -4, -2
