1503942726462,3, 0, 0, -2, 1, -2, -2, -1
1503942726477,-2, -1, 0, -2, -2, -2, -1, 0
1503942726484,-2, -4, 1, -1, -1, -1, -2, -6
1503942726494,2, 2, 1, 4, 1, 0, -1, 2
1503942726499,-4, 0, -3, -2, -1, -1, 0, -1
1503942726515,3, 0, 0, 0, 0, 0, 2, -1
1503942726533,-1, 0, 1, -2, -2, -1, 2, 4
1503942726544,4, 2, -2, -1, -1, -2, 0, 1
1503942726552,-1, -3, -4, -5, -2, 0, -2, -3
1503942726559,-1, -2, -1, -1, -2, 0, -1, 0
1503942726574,-1, -1, -3, 0, -1, -1, -2, -1
1503942726581,1, -1, 0, 0, -2, 0, 0, 1
1503942726582,2, 1, 1, 0, -1, 0, -1, 0
1503942726589,-5, -4, -4, -3, 0, -1, -1, -1
1503942726590,0, 0, 2, 2, 0, -1, -1, -2
1503942726604,0, 0, -2, -2, -2, 1, 0, 2
1503942726612,2, 3, 1, 3, 2, 0, -2, -1
1503942726613,-3, -1, -5, -3, -2, 0, -1, 0
1503942726619,-1, 0, 0, -3, -1, -2, 0, -2
1503942726634,-3, -3, -3, -3, -3, -3, -3, -5
1503942726642,-2, -1, -3, 1, 2, -2, -2, 0
1503942726650,2, -1, -1, 1, 0, -1, -2, -2
1503942726664,1, 0, 0, 0, 0, 0, -2, -4
1503942726672,-1, 0, -4, -2, -1, 2, 1, 2
1503942726679,-2, -1, 0, 0, 0, -1, 0, -2
1503942726680,-1, -1, -4, 1, -1, 0, 0, 3
1503942726694,-3, 0, 1, 0, 1, 0, -2, -4
1503942726702,-5, -2, -4, 0, -2, -1, 1, -2
1503942726709,1, 0, -2, -2, -1, -1, 0, 1
1503942726724,0, -3, 0, -3, -2, -1, -1, -2
1503942726732,-3, 1, -4, -2, 0, 0, 1, 1
1503942726739,2, 1, 0, 1, 0, 1, 1, 1
1503942726754,-1, -2, -2, -2, -3, -1, -2, -4
1503942726761,-3, 0, -4, -1, -2, -1, -2, 0
1503942726770,-1, 2, 0, -1, 2, 1, 0, 0
1503942726791,-1, 2, 0, 2, -1, -2, -1, -1
1503942726793,-1, 2, -3, -3, -3, -1, -1, -1
1503942726806,-4, -1, -1, 2, 3, 0, -2, -5
1503942726815,-1, 1, -2, 0, -1, -2, -1, -2
1503942726822,0, -4, -3, -3, -2, 0, 1, -2
1503942726837,-1, -5, -1, -3, -1, -2, -2, -1
1503942726845,-4, -2, -1, -1, -2, -1, 0, -1
1503942726852,-1, -3, 0, 0, -1, -2, 0, 1
1503942726866,0, 0, -2, 0, -1, -1, -1, -4
1503942726875,-4, -2, -1, 2, 0, 0, -4, -6
1503942726882,1, -1, -1, -1, -1, -1, 0, -2
1503942726897,-2, 1, -1, -3, -2, -4, -1, 1
1503942726904,3, 0, -3, -3, 1, -1, 0, 0
1503942726912,1, -2, -1, 1, -2, 0, -1, 1
1503942726926,-2, -2, -4, -2, -3, 0, 0, -1
1503942726936,0, 0, -1, -3, 0, 1, 0, 1
1503942726942,-1, -1, 3, 0, 0, -2, -2, -1
1503942726956,3, 2, 0, 1, 2, 1, 1, 2
1503942726965,-4, 0, 0, -1, -1, 0, -2, 2
1503942726972,0, -2, -2, 0, 0, 0, 0, 1
1503942726986,-1, -2, -2, -4, -1, -1, -3, -2
1503942726994,-2, -3, -2, -2, -5, -3, -2, -4
1503942727004,-1, 2, -1, 0, -2, -1, -1, 0
1503942727017,-1, 0, -1, -1, -1, -1, 0, 0
1503942727024,1, 1, -1, 1, 0, -1, -1, 0
1503942727033,1, 4, 0, -2, -2, 0, 1, 2
1503942727048,2, -1, -3, 0, -1, -1, 0, -1
1503942727054,0, -1, 0, -3, -2, 0, -1, 0
1503942727062,-2, 0, 0, 0, 2, 1, 0, -1
1503942727077,-1, 1, 1, 1, 0, 0, 0, 4
1503942727084,-4, -2, -3, -1, -1, 0, -1, -2
1503942727092,-3, 2, 1, 2, 1, 0, 0, 1
1503942727106,0, -1, -2, -4, 0, -2, 0, -1
1503942727114,-1, -3, -4, -1, -3, -1, -1, 0
1503942727122,-3, -3, -3, 2, 2, -1, -2, 1
1503942727138,2, 1, -1, 1, 0, -2, 0, 0
1503942727144,2, -3, 0, 2, 0, 1, -1, 2
1503942727152,-3, -1, -2, 1, 1, 0, -2, -3
1503942727166,1, -1, 0, -2, -1, -2, -2, 0
1503942727174,1, 0, -2, -2, -1, 0, -2, -5
1503942727182,-5, -2, 0, -1, -1, -1, 1, 0
1503942727197,-1, -2, -2, 0, -1, -1, 0, 0
1503942727205,3, 2, -3, -1, -1, 0, 1, 0
1503942727212,-3, -3, -1, -1, 0, -1, -1, -6
1503942727226,-1, 2, 3, 3, -1, 1, 1, 1
1503942727234,-2, -1, -2, -1, 2, 0, -2, 1
1503942727242,-4, 0, -3, -2, 1, 0, -1, -1
1503942727257,-3, -2, 0, -3, -2, -3, -2, -2
1503942727264,-2, 3, -5, -1, -4, -2, -1, 1
1503942727278,1, -1, -2, -1, -1, 0, 0, 2
1503942727286,-4, -6, -3, -1, -3, -3, -4, -6
1503942727294,-2, 2, -2, 1, -1, 0, 0, -1
1503942727302,-1, 0, -2, -1, -1, -2, -1, 0
1503942727317,1, -3, -1, -2, -1, -2, -3, -6
1503942727324,0, -1, -2, -2, -2, -2, -1, 0
1503942727332,3, 1, -1, -1, -2, 0, -1, -1
1503942727346,-2, 2, 1, -1, -3, 0, -1, -1
1503942727354,1, -1, -3, 0, 0, -1, 0, 2
1503942727363,-2, 1, -3, -2, 0, -2, -2, -2
1503942727377,-1, -3, 0, -2, -2, -1, -2, -2
1503942727384,-3, -1, 0, 2, 3, 0, -1, -3
1503942727392,-3, 1, -3, -1, -2, 0, -2, 2
1503942727407,-3, -3, -2, -3, -2, -1, -3, -3
1503942727414,-4, -3, -2, -1, -1, -1, 0, 0
1503942727415,0, 1, 0, 0, 1, 1, -1, 0
1503942727428,0, 0, -1, 0, 0, 1, -1, 3
1503942727436,-5, -2, -1, -1, 1, -1, 0, -3
1503942727451,5, 2, -1, -1, 0, -2, -1, 0
1503942727453,-1, 1, -3, -3, -2, -2, -2, -2
1503942727466,0, -5, -4, -4, -3, -3, -3, -5
1503942727474,-5, -1, -7, -3, -3, -3, -2, -2
1503942727482,-2, 2, 1, 0, -5, 1, 1, 1
1503942727496,2, -1, 1, 0, 0, -1, 0, -2
1503942727504,0, -2, -3, -1, 0, -1, -1, -1
1503942727512,0, 3, 2, 3, 1, 2, 0, 1
1503942727526,2, 1, -1, -2, -1, -1, 0, 4
1503942727534,1, 2, 0, 0, -2, -2, -1, 0
1503942727542,1, 0, -2, -3, 0, -1, 0, -1
1503942727556,0, -1, -1, 1, -1, -1, -1, -1
1503942727564,2, 4, 1, 2, 3, 1, 1, 1
1503942727574,5, 1, -2, -1, 0, 0, -1, 2
1503942727575,-3, -4, -3, -3, -4, -3, -1, 0
1503942727586,-1, -2, -3, 1, -2, -1, -2, -4
1503942727594,3, 3, 0, 1, 1, -1, -2, 1
1503942727602,-3, 2, -2, -1, 1, 0, -2, -1
1503942727617,-2, 1, -1, 0, 0, 1, 2, 1
1503942727624,1, -1, -1, -2, 1, -1, -1, 1
1503942727632,2, -1, -1, 0, 1, 0, 1, 2
1503942727646,-3, 0, 0, 0, -2, 0, -1, 1
1503942727654,1, -1, 1, 1, 1, -1, -2, 0
1503942727661,1, -3, -3, -3, -1, -1, -2, -3
1503942727677,-4, -2, -2, 0, -1, 1, 0, 0
1503942727685,-1, 0, -1, 0, -2, 0, 0, 2
1503942727692,-1, -3, -1, -3, -1, -1, -1, -1
1503942727708,-1, -2, -3, 0, 0, -1, 0, -2
1503942727714,-3, 1, -2, -3, -2, -1, 1, 1
1503942727728,-1, 0, 1, 1, 0, -4, -1, -1
1503942727736,-2, 0, -1, -2, -1, -1, -2, -1
1503942727744,-3, -4, -1, 0, 0, -1, -1, 2
1503942727759,-1, -2, -2, -2, -1, 0, -2, -1
1503942727766,1, 2, -4, -2, -3, -3, 1, 3
1503942727767,-2, 2, 2, 2, 0, 2, 1, -2
1503942727776,-1, -3, 0, -1, 1, -1, -2, -4
1503942727788,1, 1, -1, -1, -2, -1, 1, 2
1503942727796,-4, 3, 2, 5, 3, 1, 1, 1
1503942727804,-1, 0, 1, 4, 0, -1, -2, -3
1503942727819,-1, -1, -3, -2, -3, -1, 0, -3
1503942727826,-2, 0, -1, -4, -1, -1, 1, 0
1503942727834,-1, -3, -4, -2, -2, -3, -1, -2
1503942727849,-2, -1, -1, -1, -1, -1, -2, -1
1503942727857,-1, 2, 1, 2, 0, 1, 0, 0
1503942727864,0, -1, -1, 1, 2, 0, -1, -2
1503942727879,-1, -2, -4, -4, -2, 0, 1, -2
1503942727886,-4, -2, -2, -2, -2, 1, -1, 0
1503942727894,2, -1, -1, -2, -4, -3, -2, 0
1503942727910,2, -4, 0, 0, -1, 0, -4, -4
1503942727911,-1, 1, -2, -2, -2, 0, -2, -1
1503942727917,-1, 0, -3, -2, 0, -1, -1, 1
1503942727924,-1, -2, 0, 1, -1, 0, -1, -1
1503942727940,-1, 0, -1, -3, 0, 0, 1, 4
1503942727946,-1, -2, -3, -3, -3, -2, -3, -2
1503942727954,1, 2, 0, 2, 0, -1, 0, -1
1503942727968,0, -1, -2, 0, -2, -1, 0, 0
1503942727978,1, -2, 0, 0, -3, 0, -2, -5
1503942727984,1, -2, -2, 3, 0, -1, -2, 1
1503942727999,-2, -1, 1, 2, 4, -3, -3, -2
1503942728006,0, 2, -3, -3, -1, 1, 1, 0
1503942728014,-2, 1, -4, 0, -2, 1, 0, -1
1503942728028,2, -2, -1, -3, -1, -1, -2, -2
1503942728036,0, 0, 1, 1, 0, 1, 0, -1
1503942728045,-5, -1, -2, -2, -1, -2, -2, -2
1503942728059,-1, -4, -4, -2, -1, -2, -2, -2
1503942728066,-1, -2, -1, 1, 0, -1, -1, -2
1503942728074,-1, 1, -1, -2, -2, -2, 0, -1
1503942728088,-1, 3, 2, 2, 1, -1, -1, -1
1503942728096,-5, -2, -3, -4, -4, -2, -2, -3
1503942728104,1, 1, 1, 2, -1, 0, 2, 3
1503942728120,0, 0, 2, 1, 2, 1, 1, 3
1503942728126,-2, -1, -5, -3, 0, -1, -1, -2
1503942728134,1, 1, -2, 0, -2, 0, -1, -1
1503942728148,0, 0, -1, 0, -2, -1, 0, 0
1503942728157,1, -1, -2, 0, 1, -1, -1, -2
1503942728164,0, 2, -1, -3, 1, 0, 0, 0
1503942728179,-4, -2, -1, -3, 0, -1, -3, -1
1503942728186,-1, -1, -1, -2, -2, 0, 0, -3
1503942728194,0, 1, 1, 2, -1, 1, -1, 1
1503942728208,3, 0, 0, -2, 0, -1, -1, 2
1503942728217,1, 0, -5, 0, -3, -1, 1, -1
1503942728224,-1, -2, -2, 0, 2, -2, -2, -1
1503942728239,0, 0, -1, -1, 0, 0, -2, 2
1503942728254,0, -2, 0, 0, -1, -2, -1, 1
1503942728255,-4, -6, -4, 0, -2, -2, -2, -4
1503942728269,-2, -1, -5, -3, -3, -1, -2, -2
1503942728276,0, 3, 1, 0, -2, 0, 0, 2
1503942728284,0, -3, 4, 3, 2, 1, -2, -3
1503942728299,0, 0, 0, -1, 0, -2, 0, -1
1503942728306,-2, 2, -3, -3, -1, -3, -1, 2
1503942728314,-2, -4, 0, 0, -1, -1, 0, -2
1503942728328,-1, 0, -1, 0, 1, 0, 0, -5
1503942728336,-4, 0, -4, -4, -1, -3, -3, -2
1503942728347,-1, -2, 1, 3, -1, 1, -2, -1
1503942728359,-2, -1, -2, -2, -1, 0, -2, 2
1503942728366,-2, 0, -3, -1, 0, -1, 0, 2
1503942728374,1, 0, -2, 1, -2, 0, 0, 1
1503942728389,-1, -4, -2, -2, -3, -1, 0, 0
1503942728396,1, 0, -1, -2, -2, 0, -1, -1
1503942728404,-3, 0, -2, -2, -1, -2, -2, -4
1503942728420,2, -2, 1, 0, -1, -1, -1, -2
1503942728426,-2, -1, -5, -1, 1, -2, -3, -2
1503942728434,0, -1, 0, -2, -1, -1, -1, 1
1503942728449,-1, 0, 0, -3, -2, -1, -1, 1
1503942728456,0, 2, -4, 1, 1, -1, -1, -2
1503942728469,1, 1, 1, -3, 0, -1, 0, -1
1503942728482,-2, 1, 0, 2, 0, 0, 0, 2
1503942728486,-3, -1, 1, 2, 0, -1, -1, 0
1503942728494,-2, -3, -2, -1, 1, 0, -1, -2
1503942728508,-1, 0, 0, -1, 0, 1, 0, 0
1503942728517,-6, -5, -4, -6, -1, -1, -2, 0
1503942728524,-1, -1, -3, -2, -3, 1, 1, 1
1503942728539,4, 1, 6, 5, 4, 1, -1, -3
1503942728554,-4, -3, -1, -2, -2, -1, -3, -5
1503942728556,-3, -1, -3, -4, -1, -2, -1, 1
1503942728568,2, 0, -3, -2, -1, -1, 0, 4
1503942728576,-1, 0, 0, -2, -2, 0, 0, 0
1503942728584,0, 2, -1, 0, -1, -1, 0, -3
1503942728599,1, -1, 0, 3, 3, 0, -1, 1
1503942728607,-4, -2, 0, 0, -1, 1, -1, -1
1503942728615,1, 1, -3, -2, -2, 0, -2, 0
1503942728628,0, 0, -1, -1, -2, -2, -1, 0
1503942728637,-1, -1, -3, -2, 1, -3, -1, -1
1503942728652,2, 2, 0, 0, 0, -1, -1, 0
1503942728659,-3, -1, 1, -2, -4, -1, -2, -1
1503942728666,-3, -1, -3, -2, -2, 0, 2, 1
1503942728682,-4, -1, -3, -1, -2, 0, -1, -6
1503942728696,0, -1, -2, -3, -2, -3, -2, -1
1503942728698,-5, -1, -2, -2, -1, -1, 0, 3
1503942728711,-1, 0, -1, -1, 1, 0, -3, -1
1503942728719,2, 4, 0, 2, 1, 0, -1, 3
1503942728726,-1, -3, 1, 2, 3, 1, -1, 1
1503942728742,-1, -2, -1, 1, 0, -1, -1, -3
1503942728749,-4, -2, -2, 3, -2, -1, 1, 0
1503942728758,0, 3, -1, -3, -3, -1, 0, 1
1503942728772,1, -1, 0, -1, -1, 1, 0, 2
1503942728779,-3, -5, -6, -7, -3, -4, -3, -5
1503942728787,-4, -2, 0, -2, -1, 0, 0, 0
1503942728801,-1, 1, 0, 0, 0, 0, 0, 2
1503942728808,-1, 0, -3, -2, -1, -2, -1, -2
1503942728817,-4, -2, -4, -1, -1, 0, -1, -2
1503942728831,-3, -1, -5, -1, -1, -2, -2, -1
1503942728839,1, -1, -2, -3, -5, -1, 0, -3
1503942728846,0, 0, -2, 1, 1, -2, 2, 3
1503942728861,-1, 0, -2, 1, -1, 0, 0, 3
1503942728868,1, 3, 1, 2, -1, 1, 0, -2
1503942728876,0, 3, -3, 0, 0, -1, 1, -1
1503942728892,1, 0, -2, -3, 1, 0, -1, -1
1503942728899,-4, 0, 2, 1, 0, -1, 0, 0
1503942728906,-2, -4, -4, -2, -2, -3, -3, -1
1503942728907,0, 0, -1, 2, 0, -1, 0, 0
1503942728922,-2, 1, -4, 0, 1, 2, 1, 4
1503942728923,2, 0, 1, 0, 0, 0, 0, 0
1503942728928,0, 1, -4, -3, -2, 0, -2, 1
1503942728937,-2, -1, -3, -1, -1, -3, -3, -3
1503942728951,-5, -4, -2, -3, 0, -1, -3, -5
1503942728959,-2, 2, -2, 1, 0, 0, 0, 2
1503942728967,1, -2, -2, 0, -3, -1, 0, 0
1503942728982,1, 1, -2, 1, 1, 2, 0, 2
1503942728990,1, 2, 3, 2, 0, 0, 0, -3
1503942728997,-3, -4, -2, -4, -2, 0, -2, -3
1503942729011,-2, 1, -3, -2, -1, -2, -1, -3
1503942729019,-3, -2, -3, -1, 0, -1, -2, -6
1503942729027,-1, -4, 2, 2, 1, 0, -2, 0
1503942729041,-2, 0, 0, 2, 1, -2, 0, -3
1503942729048,-4, -1, -2, -2, -1, -2, -1, -1
1503942729057,3, 2, -3, 0, -2, 1, 0, 1
1503942729071,-1, 0, -2, 0, 0, -2, -1, -1
1503942729079,-1, 2, 1, 2, 5, 0, -1, -1
1503942729087,1, 2, -1, 0, -2, 0, -1, 1
1503942729102,-3, -2, 1, 0, -2, -1, -1, 0
1503942729109,-1, 0, -5, -2, -1, 0, -2, -2
1503942729119,2, 2, 0, -1, -2, 0, 1, 0
1503942729131,-1, -1, -2, -1, 0, -2, -1, 0
1503942729139,-1, 0, 0, -2, 0, -3, -1, 0
1503942729146,2, 0, 2, -1, -1, 0, -1, 0
1503942729161,-2, -5, -3, 0, 0, -3, -3, -7
1503942729169,0, 0, 1, 1, 1, 0, 1, -1
1503942729176,-8, -3, 0, 1, -1, -1, -2, -2
1503942729177,-1, -1, -2, -2, -2, -1, -1, 1
1503942729191,-4, 0, -4, 0, -4, 0, -1, 0
1503942729199,-1, -1, -1, 2, 3, -1, -2, 0
1503942729206,-1, -2, 1, -1, 1, 0, -2, 0
1503942729222,-3, -1, -2, -2, -2, 1, 0, 0
1503942729229,-2, 0, -1, -1, -4, 1, -2, -1
1503942729237,1, 2, 0, -4, -2, -2, -1, 0
1503942729253,4, -2, 2, -3, 0, -1, 0, 2
1503942729259,0, -1, -4, -2, -4, -1, 0, 0
1503942729266,-3, -1, 0, 1, 0, 0, -2, -2
1503942729281,-8, -4, -1, 0, -2, -2, -2, -4
1503942729289,1, 1, -2, -2, 1, -4, 1, -2
1503942729296,1, 0, -1, -1, 1, -1, 0, 0
1503942729311,-1, 0, 0, 0, 0, 1, 0, 1
1503942729322,4, 0, -2, -2, 0, -1, -1, 0
1503942729327,0, -1, -4, -2, 0, -2, 0, -3
1503942729341,3, -1, 2, 0, 1, 1, 0, 2
1503942729349,2, -1, -3, 1, -2, -3, -2, 0
1503942729356,-6, 1, -1, 0, -1, 1, 0, 2
1503942729371,-2, -3, -3, -4, -5, -2, -3, -3
1503942729379,1, -1, -7, -2, 0, -2, 0, -1
1503942729389,-5, -4, -3, 0, -2, -1, 1, -4
1503942729401,-3, -1, -2, 0, -1, 0, -2, -1
1503942729402,2, -3, -3, -1, -1, -1, 0, -2
1503942729409,-3, 0, -2, -2, -1, -2, -2, 1
1503942729416,2, 1, 1, -1, -2, -2, 0, -3
1503942729432,1, 2, 1, 1, 1, 1, -1, 2
1503942729439,0, -1, -3, -5, -2, -3, -1, 0
1503942729456,3, 1, 1, -3, -1, 0, -2, 2
1503942729462,1, 2, -3, -3, -2, 1, 1, 2
1503942729463,1, 1, 2, -2, 1, 1, -1, 0
1503942729469,0, 2, -1, 1, 1, -1, -1, -2
1503942729476,-1, -3, -2, 0, -2, -2, -1, -4
1503942729477,0, 0, -1, 0, 0, 0, -1, 0
1503942729492,3, -1, -1, 1, 0, -1, -1, 2
1503942729499,-2, 1, 1, 2, -1, -1, 0, -2
1503942729515,-5, 2, -1, -3, 1, 0, 2, -1
1503942729522,-4, -5, -3, -2, -2, -3, -3, -4
1503942729530,0, -2, 0, 0, 0, 0, 0, -2
1503942729537,-2, 1, 0, -1, 0, 1, -1, 0
1503942729559,-1, 0, -3, -1, -2, -3, 0, 0
1503942729561,2, -1, -1, 0, 0, -2, -1, -3
1503942729576,-2, -6, -5, -4, -1, -1, -1, -2
1503942729582,-3, -1, 0, 1, -2, -1, 0, 2
1503942729591,0, 1, -2, -1, -1, 1, 0, -2
1503942729604,-3, -1, -3, 1, -2, -1, -2, -1
1503942729615,-2, 1, -2, 1, 0, 0, 0, -3
1503942729622,0, 2, 0, 1, 3, 0, 0, -1
1503942729635,0, 0, 2, 5, 2, -1, -1, 2
1503942729641,1, -1, -2, -1, -2, 0, 1, -1
1503942729642,-4, -2, -2, -3, -4, -1, -2, -4
1503942729649,1, 2, -4, -3, -3, 0, 1, 2
1503942729665,-2, 0, 1, 1, 1, 1, -3, -2
1503942729672,-3, 2, -1, -1, -1, -1, -1, -1
1503942729679,2, 0, -1, -1, -1, -1, 1, 3
1503942729695,-3, -5, -1, -3, -1, -1, -2, -1
1503942729701,0, 0, -4, -1, -1, 0, 1, 4
1503942729709,-1, 0, 1, 0, -1, -1, -2, 1
1503942729725,-2, 0, 0, -2, -4, -2, 0, 0
1503942729732,-4, -4, -1, 0, 0, 0, -2, -6
1503942729739,-4, -1, 1, 0, 1, -1, -2, -1
1503942729756,1, -1, -1, -1, -1, -2, -1, 0
1503942729761,-1, 0, 0, 1, -1, 0, 0, 4
1503942729769,2, 2, 0, 1, 0, -1, -2, 0
1503942729784,5, 4, 0, 1, 0, -1, 4, 3
1503942729792,3, -2, 0, -3, -1, -2, 1, 2
1503942729799,-4, -4, -2, -4, 0, -1, -3, -7
1503942729814,-3, 1, -2, 0, 0, -1, 0, -1
1503942729824,-1, -2, -2, 3, 1, 1, 1, 2
1503942729829,-3, -1, -2, -3, 0, -1, -1, -3
1503942729844,-4, -5, -3, 0, 0, 0, 0, -2
1503942729852,-1, -1, -2, 0, -2, 0, 0, -5
1503942729859,-2, -1, -1, -3, -2, -2, -2, -3
1503942729874,-1, -1, 0, -3, -5, -1, 0, 1
1503942729882,-4, -2, -1, -2, -1, -3, -1, 1
1503942729890,-1, -2, -1, -3, 1, -1, 1, -1
1503942729904,4, 3, -1, 1, 2, -1, -1, 2
1503942729912,-1, -5, -4, -5, -4, -2, 0, 5
1503942729919,-2, 1, -1, -3, -2, -1, 0, -1
1503942729934,1, 0, -1, -1, -2, 0, -2, -3
1503942729942,-1, 0, -3, -2, -1, -1, -1, -2
1503942729949,-5, -1, -1, 2, -2, 0, -4, -1
1503942729964,-1, 2, 1, -1, -1, -1, -1, -1
1503942729979,-1, 0, -2, 1, 2, 0, 0, -2
1503942729980,1, -6, -3, -2, -3, -1, -2, -1
1503942729995,1, 4, 1, 2, 1, 0, 1, 3
1503942730001,1, 1, -1, 1, 0, 0, -3, -1
1503942730009,3, 2, -5, -3, -1, -1, -1, 1
1503942730010,2, 3, 1, 1, 0, 0, 1, 1
1503942730032,0, 1, -2, -2, 2, -2, -1, -1
1503942730039,1, 0, -4, -2, 0, -1, -1, 2
1503942730054,-1, -3, 2, 3, -1, -1, -2, -4
1503942730062,-2, -1, 1, 0, -4, -1, 0, -2
1503942730069,-2, 0, -1, -1, -1, -1, -3, -5
1503942730070,-4, -3, 0, -1, -2, -2, -1, -1
1503942730084,-2, 0, -2, -2, -1, -1, 0, 3
1503942730094,-3, -2, -1, -1, 0, 0, -2, -3
1503942730099,-2, 2, -1, 1, 0, 1, 0, -3
1503942730115,-1, -7, -3, -3, -3, -3, -5, -8
1503942730122,3, 2, -4, -2, 0, -2, -1, 0
1503942730130,-2, 2, -4, -1, -1, 1, 2, 2
1503942730144,-1, -3, 0, 0, 0, 0, -1, -4
1503942730152,0, 0, -6, -2, -3, -2, 0, 0
1503942730159,1, 0, 0, -2, 2, -4, 1, 3
1503942730174,-1, 0, -1, -1, 0, -1, -1, -1
1503942730182,1, 2, -3, 1, -2, 0, -2, 0
1503942730190,-3, 1, -1, 0, 0, -1, -1, 1
1503942730204,0, 0, -1, 0, 0, -2, -1, -1
1503942730212,1, 5, 0, 0, -1, -1, -1, 2
1503942730219,-5, -4, 1, -2, -2, 1, -2, -2
1503942730235,0, 0, -3, -2, 0, -2, -3, -3
1503942730241,-3, -5, -1, -1, 2, -2, -2, -5
1503942730250,-1, -4, 0, 0, 0, -1, 1, -2
1503942730264,4, 2, -2, 1, -2, 0, 0, 1
1503942730272,1, 0, -2, 0, -2, 0, 1, -1
1503942730279,-7, -2, 0, -4, -2, -1, -1, -5
1503942730295,-4, -1, -4, -4, -1, -2, 0, 1
1503942730302,1, 0, -1, 2, -1, 0, 1, 4
1503942730309,0, -1, -1, -1, 2, 0, 0, 2
1503942730324,-1, -1, -2, 0, -1, -1, -1, -1
1503942730332,-4, -1, -2, 0, -1, 2, -1, 0
1503942730339,1, -2, -1, -1, 0, 0, 1, 1
1503942730365,-3, -2, -1, -4, -4, -1, -2, 0
1503942730370,-5, 0, 0, -1, 0, -2, -1, -5
1503942730384,0, 1, -3, -2, 1, 0, -1, -2
1503942730395,-2, -1, -2, 1, -1, -3, 0, -1
1503942730399,-3, 2, -2, -1, 1, -2, 0, 0
1503942730414,4, 1, -1, -2, -1, 0, 0, 2
1503942730422,-1, -2, -2, 0, -3, -1, -4, -6
1503942730429,0, -3, -1, 1, -1, -1, -2, 2
1503942730451,1, -1, -1, 0, -2, 0, -1, -1
1503942730453,0, 0, -1, 0, 0, 1, 1, -2
1503942730460,-4, -4, 0, 1, 0, -1, -1, 1
1503942730474,3, 2, 2, 2, 0, 1, 1, 2
1503942730481,2, 4, -1, 4, 2, -1, 0, -1
1503942730490,2, 4, -1, -1, 0, -1, -1, 2
1503942730504,1, -1, -1, -1, -1, 1, -1, 1
1503942730512,-3, -3, -1, -1, -4, 0, -2, -1
1503942730529,-1, 0, -3, 2, 1, 0, 1, 0
1503942730534,-2, -2, -2, -2, -1, -1, -2, -5
1503942730541,0, -2, -3, -6, -2, -1, -1, -2
1503942730556,-1, -1, -2, -1, -3, -1, -3, -3
1503942730564,2, 0, 0, -1, 0, -2, 0, -1
1503942730573,-3, -2, -4, -4, -1, -1, -2, 0
1503942730586,-1, -2, 0, -1, -1, 1, -2, 2
1503942730596,-1, 2, -1, 0, -1, 1, 0, 0
1503942730601,-1, -1, -4, -2, -1, -3, -2, -1
1503942730616,-2, -2, 0, 2, 4, -3, 0, 0
1503942730624,-1, -1, -3, -1, -1, -1, -2, -2
1503942730633,-2, -1, 0, -4, -1, -2, -1, 0
1503942730646,-3, 0, 0, 2, 0, 1, 0, 0
1503942730654,0, -2, 0, 0, -3, -1, 1, 0
1503942730663,-3, -3, -4, -3, -2, -2, -1, -4
1503942730676,0, 0, -2, -4, 0, 0, 0, -1
1503942730684,-2, 0, -1, -3, -2, -2, 1, 0
1503942730692,0, -4, 0, 1, 0, -2, -1, -4
1503942730706,0, 3, -1, -2, -2, -1, -1, 1
1503942730714,1, 2, 1, 1, 0, 0, -1, 0
1503942730722,-3, -1, -2, -1, -2, -2, 0, -2
1503942730736,0, -1, -1, 0, 0, 0, 1, -1
1503942730744,2, 0, 1, 0, 1, 0, 0, 1
1503942730752,-1, 1, -4, -1, -1, 2, -4, -2
1503942730766,1, -2, 0, -1, -3, -1, 0, 3
1503942730774,0, -5, 0, 0, -4, -3, -1, -3
1503942730781,2, 1, -1, 0, -2, 0, -1, 0
1503942730797,-3, 2, -3, -3, -1, -2, -1, 2
1503942730804,-4, -2, 0, 4, 1, -1, -1, -3
1503942730813,0, -1, -5, -2, 1, -1, -2, -6
1503942730826,-2, 0, -3, -2, -1, 0, 0, 3
1503942730834,-4, -3, 0, 0, 0, -1, 0, -2
1503942730841,0, 0, 0, -2, 1, 1, 0, -2
1503942730864,3, 1, -2, 1, 1, -1, -3, -3
1503942730873,-4, -1, -3, -1, -3, -1, 0, -2
1503942730886,-4, -3, -3, -3, 0, -1, -1, -2
1503942730894,-1, -1, -1, -1, -3, 1, 1, 4
1503942730902,-3, 0, -1, 0, -1, 0, -1, -7
1503942730916,0, 4, 2, -2, 1, -1, -1, 3
1503942730924,-2, 0, -2, -4, -2, -1, -1, 0
1503942730932,1, 2, -1, 2, 0, 0, -1, 2
1503942730946,0, -1, 0, 0, -1, -1, -2, -2
1503942730954,-6, -2, -2, 0, 2, -2, -1, 0
1503942730961,-1, 1, 1, -2, -2, -2, -1, -3
1503942730976,1, 0, 1, 2, 2, 1, 0, -4
1503942730984,1, -1, 0, 0, -2, 0, 0, 0
1503942730993,-2, -1, -3, -1, -1, -2, -3, -2
1503942731007,1, -1, 0, 1, 2, 0, 1, 1
1503942731014,0, 0, -1, -4, -2, -1, 0, 3
1503942731022,0, -1, -1, -4, -4, 0, -1, -2
1503942731036,0, -1, -1, -1, -1, 0, -2, -3
1503942731044,-6, -2, -2, 3, 1, -2, -2, -1
1503942731052,1, 2, -1, -1, -2, -1, -1, -2
1503942731067,-1, -3, -2, 0, 0, 0, -2, -1
1503942731075,-1, 0, -3, -4, -3, 1, 0, 1
1503942731081,-4, -4, -2, -1, 0, 0, -2, -3
1503942731098,0, -1, -2, -4, -1, -2, 0, 0
1503942731099,2, 1, 0, 2, 2, -2, 0, 2
1503942731104,-1, 2, -1, -3, 1, -1, -1, 2
1503942731112,-7, -5, -2, -1, -2, 0, 1, -1
1503942731126,-1, -2, 0, 1, 0, -1, 0, -1
1503942731134,-4, -1, -3, -3, -2, -3, -2, -2
1503942731142,0, 2, 1, 0, -2, -2, -1, -2
1503942731156,-3, -2, 0, 1, 0, 0, -3, -2
1503942731164,-5, -4, -6, -3, -2, -3, -3, -4
1503942731172,0, -1, -2, -3, -4, 0, -2, -2
1503942731186,-4, 0, -1, 0, -1, 0, 1, 2
1503942731194,-1, 0, -2, 2, -2, 0, -1, 0
1503942731201,1, 1, -3, -6, -3, -2, 0, -1
1503942731202,0, 0, -2, -1, -2, -1, -1, 1
1503942731216,3, -1, 0, 0, 0, -2, 1, 2
1503942731224,0, 1, 0, 0, -1, 0, -1, 0
1503942731233,3, 3, -1, -1, -1, 0, 2, 2
1503942731246,6, -1, 0, 2, 1, 0, 0, -1
1503942731262,2, -1, -2, -3, 0, -1, 1, 3
1503942731277,-2, -1, 2, 1, -2, 2, 1, -3
1503942731284,-3, -1, -2, -2, -3, -1, 0, 1
1503942731292,-2, -3, -1, 0, -2, -2, -3, -3
1503942731306,1, 1, 0, 2, 2, 2, -1, -2
1503942731314,1, 0, -2, -1, 0, -1, -1, 1
1503942731321,-3, -1, -2, 0, 0, 1, -1, -2
1503942731322,-1, -1, -4, -3, 0, -1, 2, 0
1503942731337,-3, -1, -2, -1, -2, -2, -3, -1
1503942731344,-3, -1, -2, -2, -2, 0, -1, 1
1503942731352,0, -1, -3, -2, 1, -2, 0, -1
1503942731367,-5, -1, 0, 1, -3, -1, -2, -1
1503942731374,1, 2, -1, -2, -1, -2, 0, 0
1503942731381,1, 0, -3, 1, 1, 0, -1, 1
1503942731396,-3, -2, -1, -1, -1, 0, 0, 0
1503942731404,1, -1, 1, 0, -1, -1, 0, -1
1503942731412,-2, -1, -1, 0, -3, 0, -2, -1
1503942731426,-2, 1, -2, -2, 0, -1, -2, -1
1503942731435,2, -3, -3, -2, -1, -1, 0, -2
1503942731441,1, 2, -3, 0, 1, -1, -1, -4
1503942731456,-2, -1, 1, 2, 0, 1, 0, -1
1503942731464,-3, -3, -2, -1, -1, 0, -2, -3
1503942731479,-2, -3, -4, -1, 2, -3, -2, -4
1503942731486,-1, 1, 4, 0, 1, 1, 2, 0
1503942731494,-1, 1, 1, 1, 0, -3, 0, 1
1503942731508,-2, 1, 1, 0, 0, -3, 0, 1
1503942731516,3, 2, 0, -3, -3, 1, -1, 0
1503942731524,0, 0, -2, -1, -2, -2, 1, 2
1503942731540,-2, 1, -1, 0, -1, 0, -1, 0
1503942731546,1, 2, -1, 1, 1, 1, -2, -3
1503942731554,-1, -1, -3, 0, -1, 0, -1, -3
1503942731570,-4, -3, -4, -3, -3, -2, -3, -1
1503942731577,-2, -2, -1, 0, 0, -1, 0, -3
1503942731584,-2, 0, -3, -1, -2, -1, -1, -1
1503942731599,1, -2, -2, -1, 0, 0, 0, -1
1503942731606,2, -2, -2, -2, 0, -3, -1, -5
1503942731614,0, 2, 0, 0, -1, 0, 0, 3
1503942731628,3, 1, 3, 2, 1, 3, 1, 2
1503942731636,-6, -4, -4, -3, -2, -2, -2, -1
1503942731645,-9, -3, -3, -3, -5, -3, 0, -1
1503942731659,2, 1, -2, 0, -1, -1, -1, -2
1503942731666,-1, -4, -2, -3, 0, 1, 0, 0
1503942731675,0, 2, 1, -1, -2, -3, -3, 2
1503942731689,1, -1, 2, 3, 1, -3, -3, -3
1503942731697,-1, 0, 0, 2, 1, -1, -1, -3
1503942731704,-1, -2, -3, -3, -3, 0, -3, 0
1503942731719,-1, 0, -2, -1, -1, 1, -1, -1
1503942731726,-2, 0, -1, 0, 1, -1, -1, -1
1503942731736,3, 0, 1, -1, -1, -1, 0, -5
1503942731749,-3, 3, 2, 1, 0, 1, 0, 1
1503942731757,-2, -2, -2, -1, -1, 1, 0, 2
1503942731764,5, 2, -4, -2, -1, -1, 1, -1
1503942731779,-2, -2, -4, -4, -3, -1, 0, -1
1503942731786,1, -1, -4, -2, -2, -1, 0, 2
1503942731794,0, -1, -2, -6, -2, -3, -1, 3
1503942731809,0, 2, 2, 0, 0, -1, -2, 1
1503942731817,-2, -2, -3, 2, 0, 1, -1, -3
1503942731824,-1, -1, -1, -1, 2, 0, -1, -1
1503942731839,0, 1, 1, 1, 0, -1, 0, 0
1503942731846,-1, -3, -2, -1, -2, -1, -1, -2
1503942731854,-3, -3, 0, -1, -2, 0, 1, 1
1503942731872,-2, -2, -1, -4, 0, -1, 0, 1
1503942731878,-1, 0, -5, -1, 0, -2, -1, -4
1503942731884,-2, -3, -5, -4, -2, -1, -1, 0
1503942731899,1, 2, 1, 3, 0, 0, -1, 3
1503942731914,-1, 0, 0, -3, -1, -1, -2, -3
1503942731915,-4, -2, -4, -2, -3, -1, 0, 6
1503942731929,1, 1, -2, -9, -1, 1, 1, -1
1503942731938,0, -4, 0, 5, 10, 1, -2, -4
1503942731944,22, -3, -3, 19, 9, -5, -2, -3
1503942731959,21, 4, -4, -6, -4, -4, -6, -4
1503942731966,-8, 0, 0, -5, -5, 2, 5, -2
1503942731976,-9, -1, 0, 0, -2, -1, 4, -6
1503942731989,-2, 3, -4, -3, -21, -7, 0, 3
1503942731997,-3, 3, -3, -9, -4, -1, -2, 5
1503942732005,-20, 6, -3, -3, -3, -4, 4, 9
1503942732019,-9, -10, -4, -13, -29, -7, 7, 4
1503942732026,-2, -1, -1, 9, 11, 13, -6, 10
1503942732034,2, -12, -1, -3, 0, 0, -21, -7
1503942732049,-3, -1, 5, -5, -3, -2, -15, -9
1503942732057,5, 14, 4, 18, -2, -4, 1, 20
1503942732064,1, -39, -3, 3, 18, 1, 5, -2
1503942732079,-5, 1, -6, -4, 5, 1, -7, -10
1503942732093,2, 14, 14, 7, -12, -7, -16, -13
1503942732095,-8, -11, -10, -7, -5, -1, 1, -6
1503942732109,0, -7, -6, 12, 25, 9, 31, -9
1503942732117,-2, 23, 9, 3, -10, -15, -4, -26
1503942732124,5, -6, -15, 0, -63, -7, 5, 1
1503942732140,5, -10, -11, 0, -19, 0, 12, 6
1503942732146,0, -4, -3, -4, -21, 14, -12, -4
1503942732147,0, 16, 9, 3, -2, -10, -7, 2
1503942732154,6, -17, -8, 5, 4, -1, -6, -7
1503942732169,-3, -20, -20, -13, 9, 4, -1, 8
1503942732177,-9, -6, -9, -17, 16, 12, 10, 1
1503942732184,0, 17, 14, 0, 40, 5, 1, -7
1503942732199,0, 3, 6, 6, -21, -19, -23, 8
1503942732207,0, 18, 11, -5, 38, 26, 0, 0
1503942732222,-1, 17, 5, 4, 16, 12, 5, 10
1503942732229,17, 13, -2, 5, -20, -27, 1, -2
1503942732237,-22, 5, -6, -3, 1, -2, 20, 1
1503942732244,15, -3, -12, 7, 11, 14, -7, 1
1503942732259,3, 16, 3, 39, 34, 10, -3, -27
1503942732266,-15, -37, -22, -3, -9, -15, -2, -12
1503942732276,-2, -28, -2, 0, 34, 3, -9, 17
1503942732289,-8, -29, -12, 2, -34, 5, 14, 3
1503942732297,6, 1, 2, -9, -11, 7, 17, -32
1503942732304,-10, -1, -3, -9, -12, -8, -11, 15
1503942732319,8, -33, -7, 0, 19, -6, -1, 29
1503942732326,1, 56, 37, -4, -22, -6, 5, -11
1503942732334,3, 29, 0, -13, -5, 40, -4, -5
1503942732350,-4, -7, -12, -16, 17, 35, -4, 2
1503942732357,-1, 7, 19, -6, 15, -5, -7, -15
1503942732364,0, -1, -17, -17, -23, 18, -4, -21
1503942732379,-8, -25, -23, -13, -5, 5, -9, -18
1503942732387,0, -12, 0, 11, 14, -35, -4, -2
1503942732401,3, -9, -13, -20, -86, -19, -12, 11
1503942732409,-6, 8, -31, -12, -14, 39, -16, -9
1503942732418,3, -3, 19, 17, 24, -17, 11, 17
1503942732431,-5, -5, -29, 1, -17, 5, 18, 47
1503942732439,-6, -26, 22, -3, -6, 16, 19, 43
1503942732448,1, -30, 0, -25, -54, -14, -3, 29
1503942732461,-4, -29, -3, 33, 42, -46, 2, 55
1503942732469,-34, -9, 35, 16, 40, -3, 26, 16
1503942732477,-5, 36, -23, -17, -50, -18, 2, -65
1503942732491,-1, 127, -14, -4, -52, -3, -25, -22
1503942732499,2, -43, -102, -36, 16, 51, 68, 38
1503942732507,77, -128, -23, 2, -1, -34, -7, -39
1503942732543,-121, 66, 70, -12, -44, 49, 8, -25
1503942732544,-40, 33, -62, -22, -46, 65, 16, -28
1503942732546,16, 83, 67, 1, -2, 16, 106, 22
1503942732550,-9, -52, -56, -33, -16, 120, -3, 73
1503942732551,74, 103, 30, 20, 88, 33, -13, 29
1503942732559,36, -88, -10, 18, 74, 79, 40, 70
1503942732567,-27, -82, 127, 59, 73, 98, -76, 120
1503942732581,29, 92, 108, -7, -44, -104, -128, -57
1503942732589,-67, 88, -86, -52, -61, -16, -39, -81
1503942732597,-79, 9, 28, 35, -35, 42, 83, -76
1503942732611,-110, -82, -46, -27, -81, -57, -10, -28
1503942732619,-81, 11, -43, -3, -18, 75, 45, -107
1503942732626,120, 8, 121, 100, 41, -70, 13, 56
1503942732643,-64, -14, -52, -57, -78, -78, -128, -21
1503942732649,-103, -48, -34, -24, 70, -31, 8, -23
1503942732657,66, -16, -14, -21, 41, -46, -48, 24
1503942732670,68, 1, 19, -23, 59, -24, -28, -8
1503942732679,7, -7, -7, -21, -43, 35, -3, 11
1503942732686,35, -42, -18, -8, -6, -24, 16, -7
1503942732701,17, -29, 3, 11, -2, -11, -2, 40
1503942732710,-41, -8, -11, 16, 3, 2, 0, -27
1503942732717,35, -8, 1, 25, 30, 0, 12, 13
1503942732731,14, 19, 1, -7, -30, 9, 16, 0
1503942732739,-81, -1, 8, 35, 46, 13, -12, 12
1503942732748,31, -11, -13, -13, -1, -23, 16, -8
1503942732761,-51, 1, 0, 58, 35, 22, -1, 1
1503942732769,20, 17, 0, 15, 84, 37, -1, 5
1503942732779,7, -3, 6, -11, -49, -6, -16, -8
1503942732791,9, 3, 0, -14, -56, -14, 24, 4
1503942732799,20, -8, -8, 8, 21, 7, 9, -3
1503942732806,-5, 1, 0, -2, -13, 2, -5, -6
1503942732821,17, -8, 2, -10, 15, -23, 0, -5
1503942732829,-5, -1, 1, -23, -19, 11, 3, -3
1503942732837,18, 2, 5, -13, 8, 2, -1, 1
1503942732851,-10, -1, -13, -2, 5, 11, -6, 0
1503942732859,3, -4, -1, -58, -19, -4, -8, -4
1503942732866,-2, -2, -7, 3, -6, -11, 2, -1
1503942732881,6, -1, 0, 29, 3, 0, 0, 1
1503942732889,3, 7, 18, 47, 30, 8, 10, -1
1503942732897,2, -5, -12, -9, 7, -2, -3, -2
1503942732912,9, 6, 15, -4, -3, 0, 5, -1
1503942732919,0, 1, 13, 2, -4, -5, -1, -1
1503942732926,-7, -2, -26, -7, -16, -1, 0, -2
1503942732941,5, -3, -4, 3, -6, 0, 0, -1
1503942732949,0, -3, -2, -14, -23, -4, 1, 0
1503942732957,1, -2, 11, -6, -13, -4, 0, -2
1503942732970,-2, -5, -19, -17, -19, -7, -2, 2
1503942732979,1, 7, -7, 13, 28, 3, -4, -1
1503942732987,-7, -4, 2, -1, -10, -4, -1, -1
1503942733001,2, 0, -2, -14, -23, -2, -3, -1
1503942733009,-1, 3, 18, -4, -10, 2, 0, -2
1503942733017,4, -9, -11, -4, 3, -1, 0, -2
1503942733030,-1, -5, -2, -1, -16, -2, -1, -4
1503942733039,-2, 10, -5, 2, 0, -1, -1, 1
1503942733047,-2, 1, -5, -4, 5, -1, 0, 2
1503942733061,-2, -3, -12, -2, -30, 1, 1, -1
1503942733069,-2, -2, -12, -1, 11, 0, 1, 0
1503942733079,1, 3, 25, 25, 31, 6, 2, 3
1503942733091,-2, -6, -6, -11, -14, -1, 0, -1
1503942733099,-3, -2, -3, 5, -7, 0, -3, -1
1503942733106,-1, 1, -13, 3, 8, 4, 3, 4
1503942733122,-2, -1, -7, -4, 11, -4, -2, -2
1503942733129,-4, -1, 2, -3, -10, 0, -1, -2
1503942733137,5, -2, -2, -5, -11, -2, -1, -3
1503942733151,0, -5, 8, 9, 1, -1, -3, 0
1503942733159,-4, -2, -11, -7, 2, 0, 0, -1
1503942733166,0, 5, -3, -12, -23, -7, -3, -2
1503942733181,0, 3, 2, -2, -15, -4, -2, 2
1503942733189,-3, -1, -2, 2, -3, -2, -2, -1
1503942733197,-5, 2, -6, -8, 0, 0, 1, -2
1503942733210,-3, 1, 5, 8, 9, 0, -2, 0
1503942733219,2, -4, -3, 4, 6, -4, -1, -1
1503942733226,-6, 10, 9, -1, 6, 0, -1, -3
1503942733241,-5, -2, -2, -12, -4, -1, 1, -2
1503942733249,6, 8, -10, -5, 1, -2, -2, -2
1503942733257,3, 10, 5, 5, 15, 1, -1, -1
1503942733270,2, -5, -1, 3, 3, 0, -2, -1
1503942733282,0, 10, 3, 3, 2, 0, 1, 0
1503942733286,3, -19, -5, -2, -2, -2, -1, 0
1503942733301,-9, -1, -8, -16, -6, -3, -2, -2
1503942733309,-7, 2, 27, 9, 3, 1, 1, 0
1503942733324,-3, -10, 2, 1, 1, -1, 0, 0
1503942733330,-5, -27, -14, -2, 3, -1, -1, -1
1503942733339,4, 16, 2, 1, -7, -2, -2, -3
1503942733358,3, -5, -1, -8, 2, 2, 2, -4
1503942733361,-6, -22, -10, -2, -9, -2, -4, -7
1503942733369,3, 6, -9, -4, -1, -1, 0, 4
1503942733384,3, 3, -3, -1, -1, -1, 1, 3
1503942733391,-9, 9, 11, 8, 2, 0, -2, -9
1503942733399,-21, -12, -6, 2, 4, -4, -11, -56
1503942733417,-6, 1, -16, -4, 13, 2, 3, 1
1503942733421,10, 5, 1, -5, -3, 0, 2, 14
1503942733429,-5, 15, -9, -19, -9, -2, -2, -9
1503942733444,3, 12, 13, -2, 27, 0, 1, 14
1503942733451,10, -10, -3, 4, -7, 0, 1, 8
1503942733459,0, -9, -9, 8, -6, 0, 1, 7
1503942733473,-2, 1, -11, -4, 2, -1, -1, -1
1503942733484,4, 6, -3, -8, -11, -1, 2, 5
1503942733489,2, -5, 4, 2, -1, 1, -3, 2
1503942733504,-5, -4, -5, -4, 7, 1, 0, 7
1503942733510,-5, -4, 11, 19, -2, -3, -2, 1
1503942733519,-2, -7, -4, -5, -6, 0, -1, -2
1503942733533,2, 20, -2, -7, -3, -2, 1, -6
1503942733542,-7, -22, -8, 16, 3, 1, 0, 6
1503942733550,-11, -2, -4, -2, -14, 0, -1, 0
1503942733564,13, 2, 4, 1, -4, -2, -2, 1
1503942733570,0, 8, 3, -3, -5, -4, -2, -9
1503942733579,0, 13, 4, -3, -3, -2, -1, 1
1503942733593,5, 14, 0, -5, 6, 1, 1, 7
1503942733601,3, 0, 1, -11, 12, 4, 4, 4
1503942733609,-4, -14, -8, 1, 22, 3, 2, 0
1503942733624,-6, 10, -4, -1, -15, -8, -3, 3
1503942733630,8, -7, -6, -4, -5, -4, -20, -3
1503942733639,4, -1, -4, -1, -4, -1, -3, -12
1503942733653,0, -1, 6, 10, -2, 1, 9, -2
1503942733661,8, 3, 5, -9, -10, 0, 4, -5
1503942733669,-13, 3, 5, -3, 3, -1, 6, 6
1503942733686,5, -19, 1, 38, 3, -2, -4, -6
1503942733690,-10, 3, 0, -26, 2, 2, 8, -11
1503942733691,9, 6, -5, 1, -3, -2, -11, 11
1503942733699,8, -8, -5, -10, -2, 8, 0, 7
1503942733713,23, 5, 4, 5, -7, -2, -4, 7
1503942733721,19, 13, -2, -6, -6, -3, 0, 27
1503942733729,-1, 14, 1, -2, 0, -1, -8, 15
1503942733744,-21, 1, 2, 4, 4, -3, -16, -8
1503942733751,-5, -3, 14, 36, 5, 4, 26, 23
1503942733759,22, 17, 0, 2, -13, -7, -5, 6
1503942733773,11, -24, -9, -13, 3, 1, 3, 11
1503942733781,-25, -6, -3, 1, 3, -1, 4, -23
1503942733789,2, 11, -4, -1, 9, 9, 0, -8
1503942733810,43, 8, -8, -15, -1, -3, -3, -1
1503942733811,-34, -16, -8, -11, -7, -7, -10, -7
1503942733827,-16, 10, -9, -12, -3, -3, -12, 6
1503942733833,39, 0, -4, -11, -8, -3, 18, -12
1503942733841,-4, -5, -5, 0, -2, -3, 11, 3
1503942733849,-27, -5, 8, 1, -4, -3, -12, 0
1503942733864,2, -3, 20, 2, 4, 7, 19, -1
1503942733870,0, -17, -10, -9, -6, -5, -5, -1
1503942733879,-39, -8, -1, 5, 7, 4, -3, -3
1503942733894,24, 12, -2, 1, -2, -3, -3, -14
1503942733901,1, 3, -12, -8, -3, -5, -12, -32
1503942733909,-17, 0, -6, 1, 2, 2, 3, -4
1503942733924,-7, 2, 7, 1, 1, 1, 9, 9
1503942733930,-51, -18, -5, -3, -4, -4, -9, -14
1503942733939,-42, -7, -2, 18, 0, -1, 5, 5
1503942733953,4, 1, -13, 15, 0, 1, 5, 19
1503942733963,-5, -12, -2, 5, 4, 1, 15, -7
1503942733969,-5, 9, 6, -4, -2, -2, -5, -16
1503942733985,11, 5, -2, -5, -3, -3, -9, 6
1503942733991,-2, 31, 14, 4, 6, 4, -2, -6
1503942733999,3, -8, -4, -8, -2, -3, -3, 9
1503942734013,22, 4, -12, -13, -6, -1, 5, 0
1503942734021,-2, 2, 2, 23, 2, 1, -8, -29
1503942734029,0, -11, 4, 4, -1, -3, -4, 6
1503942734044,-19, -33, -25, -22, -7, -5, -5, -2
1503942734053,-8, -8, 0, 5, 0, 0, -2, -11
1503942734060,25, -8, -2, -5, -5, -2, -7, 3
1503942734073,-5, -9, -6, -8, -1, 0, 0, 3
1503942734081,-21, 0, -1, -6, 1, 1, 1, 13
1503942734089,13, -2, 2, 0, 1, -1, 1, -15
1503942734104,12, 15, 6, -2, 0, 0, -1, -4
1503942734111,-18, -2, -17, -21, -8, -3, -4, -1
1503942734121,19, 14, 17, 15, 8, 2, 3, -2
1503942734133,-38, -12, 0, -9, -3, -4, -17, -12
1503942734142,-15, 8, -6, -10, -2, -1, 0, 7
1503942734149,-2, -24, -2, -1, -1, 0, 5, 4
1503942734164,-21, -2, 5, 2, -2, 0, -2, 2
1503942734172,46, 16, 15, 4, 4, 2, -2, 7
1503942734179,53, 3, 3, 3, -1, -1, -1, 3
1503942734196,-15, -18, -7, -1, -2, -3, -6, -5
1503942734202,-9, 3, 0, 4, 0, -1, 0, 4
1503942734209,31, 14, -2, -3, -6, -4, 0, 13
1503942734224,2, -14, -4, 0, -3, -1, 0, 4
1503942734231,-48, 11, -2, 3, 3, 3, 8, -5
1503942734246,-8, -8, 7, 0, 0, -3, -3, -4
1503942734254,4, 8, -8, -7, -5, -2, -6, -3
1503942734261,-6, 8, 0, 0, 4, 1, -3, -13
1503942734275,-5, 3, -4, -1, -1, -1, -4, -5
1503942734284,-7, 14, -12, -8, -12, -6, -15, -16
1503942734292,1, -9, -1, 1, 2, 2, 7, 15
1503942734306,8, 1, -4, -9, -1, 2, 5, 1
1503942734313,9, 5, 1, 12, 14, 1, -10, 0
1503942734322,-15, -11, -9, -16, -6, 0, 7, 18
1503942734335,-27, -14, -6, -2, -8, -3, 8, -5
1503942734344,-17, -5, 3, 0, 15, 1, -5, 1
1503942734351,35, 14, 0, -6, -2, -4, 0, -7
1503942734366,19, 17, 2, 9, -5, 0, 5, 3
1503942734373,15, -5, 2, 0, -4, -4, -3, -9
1503942734381,1, -8, 5, 9, 15, 0, 1, 2
1503942734396,6, -7, -7, -13, -3, -3, -23, -5
1503942734404,-35, -17, -3, -10, -13, -1, 15, 6
1503942734411,-23, 2, 0, -1, 3, 4, 0, -1
1503942734426,-10, 1, 6, 22, 1, 1, 0, 3
1503942734433,11, 7, 3, 11, 3, 1, 21, -3
1503942734441,11, -2, -3, -1, 36, 1, 2, -9
1503942734456,4, 1, 5, 11, 13, -2, 11, -11
1503942734464,13, -2, -6, -10, -17, -10, -11, -8
1503942734471,-12, -8, -3, -9, -11, -5, -2, 8
1503942734486,5, 1, 5, 14, -14, -6, -11, -2
1503942734493,-7, 0, 4, 11, -6, -1, 4, 2
1503942734501,-7, -2, 1, -7, -8, -4, 6, 4
1503942734515,21, 2, -1, -2, 3, 2, -7, -2
1503942734528,-24, -9, -5, -3, -4, -2, -14, -12
1503942734531,-23, -7, -6, -8, -13, -1, -4, 2
1503942734546,9, 6, -5, -7, -4, -1, -2, 2
1503942734553,-3, -3, -3, -9, 1, -8, -2, -4
1503942734561,0, 4, 8, 2, 19, 14, 24, 8
1503942734575,11, 7, 4, -1, -8, 0, -3, 6
1503942734584,3, 7, -10, -12, -13, -14, -9, -6
1503942734591,-1, 0, -2, -4, 2, -19, 1, 1
1503942734606,5, 33, 4, 7, -2, -34, -7, -7
1503942734613,14, -6, -15, -5, -3, -25, 0, -2
1503942734623,20, -2, 1, 4, 2, 11, -1, -2
1503942734636,5, 3, -5, 0, 1, 20, -1, -6
1503942734644,2, -20, -4, -1, 5, 24, 3, 22
1503942734653,6, 1, 0, 0, -17, 15, -8, 0
1503942734666,-13, -5, 1, -9, -15, 11, 7, -1
1503942734673,-10, -23, -2, 5, 26, 20, 4, -5
1503942734681,-1, -10, -2, -5, 3, -7, -5, -2
1503942734696,2, 14, 1, -9, -15, -2, 6, 2
1503942734704,1, -6, -3, 6, 17, 4, 6, -1
1503942734711,0, 7, 4, -3, -17, -5, -5, 3
1503942734735,-2, 17, 12, 33, 34, 6, 5, 5
1503942734741,11, 5, -3, 0, -9, 2, -16, 3
1503942734759,-10, -7, -10, -12, 3, 0, 0, -2
1503942734764,-33, -14, 2, 42, -22, -16, 0, 5
1503942734779,0, -8, 4, 33, 20, 6, -2, 1
1503942734786,-13, -6, -12, -11, -19, -5, 2, -14
1503942734794,-6, -9, -8, -3, 2, -8, 0, -1
1503942734801,0, 14, 8, 37, 28, 16, -1, -14
1503942734817,-2, 3, 4, 20, -15, 6, 14, -3
1503942734826,-9, 2, -7, -17, -23, 2, 1, 9
1503942734839,13, 8, -8, -17, -16, 31, -25, -6
1503942734846,-6, -17, 0, -18, 4, 5, -1, -20
1503942734854,-5, -4, -1, -21, -29, -21, -5, -5
1503942734861,7, -4, -7, -24, 24, 3, -33, 6
1503942734877,5, 12, 2, -26, 25, 2, 5, 1
1503942734884,-10, 2, 7, 2, 1, 2, 20, 6
1503942734901,-7, -1, -1, 0, -37, -14, -5, 4
1503942734906,-1, 7, -3, -13, -19, 3, 2, 3
1503942734914,-11, -31, -11, 12, 22, -6, -3, 1
1503942734922,19, 33, 4, 12, 0, -3, -2, -6
1503942734937,0, 9, -4, -16, -41, -4, 10, -1
1503942734944,16, 3, -1, 8, 17, 2, -7, -1
1503942734963,21, 16, 2, -14, -13, -1, 2, 8
1503942734966,-4, -24, 8, 19, 25, -18, 6, -2
1503942734974,-12, -13, -4, -2, -19, 3, -3, 5
1503942734981,-2, 10, -14, -5, -9, -8, 9, -4
1503942734997,3, 5, 3, -17, 15, -2, 6, 0
1503942735004,1, -8, 10, 13, 40, 10, 0, -4
1503942735019,-5, 20, 4, 0, 8, 3, -3, -8
1503942735027,-5, 0, 3, 2, -23, 1, -6, 4
1503942735035,-7, -8, -4, 12, 32, -4, 4, -1
1503942735041,-5, -4, 5, 22, 21, 7, 4, 9
1503942735057,-2, 2, 4, -10, -33, -13, -8, -7
1503942735064,-9, -10, -6, -13, 0, 3, 13, -9
1503942735080,14, -6, -4, -21, -13, -6, -2, 1
1503942735086,-7, 18, -4, -6, -29, -4, 2, 0
1503942735087,5, -44, -10, -13, 6, -3, -1, 14
1503942735102,-6, -1, -7, -4, 9, -2, -7, -2
1503942735103,-17, -17, -12, -4, -11, -2, -11, 3
1503942735117,18, -3, 22, 10, 0, 1, 8, 16
1503942735124,-4, -4, -6, 2, 6, 1, -9, -8
1503942735139,4, -15, -1, -6, -13, -2, -3, 2
1503942735140,-1, -10, 4, 4, 17, 9, 3, -10
1503942735146,8, -9, -9, -3, -3, 0, 5, -3
1503942735154,4, -4, -6, 2, 17, 5, -17, -6
1503942735163,-5, 8, -4, -9, -7, -3, 8, -3
1503942735177,-11, -7, -6, 18, -13, 4, -1, 1
1503942735184,-2, 19, 2, -9, -15, -1, -16, 7
1503942735201,-3, -4, 0, 14, 5, -2, -6, -4
1503942735206,7, 0, 2, -1, -17, -2, 6, 11
1503942735215,-12, -38, -13, -8, 13, -3, -1, 0
1503942735230,24, 11, -1, -7, -1, -5, 2, -8
1503942735237,-6, 8, 1, 13, 7, -2, -12, -4
1503942735244,-7, 4, 3, -6, 3, -4, 4, -7
1503942735262,3, 13, 3, -6, -4, -2, 3, 3
1503942735266,-4, 7, 0, 0, -12, 0, -12, 4
1503942735275,-3, 6, -2, 3, 6, -1, 2, 3
1503942735289,-11, 0, 2, 11, 5, -5, -4, -14
1503942735297,-4, 0, -7, -5, -5, -3, 8, 1
1503942735304,3, 0, -1, -3, -15, 1, -6, -5
1503942735320,-3, 6, 1, -12, 3, -6, 1, -2
1503942735327,-8, -2, -4, -4, 16, -1, 1, 1
1503942735335,9, 9, 10, 0, -5, 2, 5, -4
1503942735349,16, -8, -9, -11, -11, -3, -1, -1
1503942735357,-9, 0, -3, 4, 6, -1, 0, -7
1503942735364,-8, 5, 3, 4, 1, 8, 2, -4
1503942735379,-14, -3, -7, -1, -10, -7, -3, -4
1503942735386,-2, 0, -6, -8, -12, -5, -4, 6
1503942735396,-10, 7, 4, 5, 9, 0, 0, 5
1503942735409,18, 1, 2, 1, 9, 8, 17, 4
1503942735417,-5, -4, -9, -7, -10, -5, -3, -6
1503942735424,-25, 4, 6, -1, -9, -3, -1, 0
1503942735439,-17, 2, 0, -2, 1, 3, 11, 3
1503942735446,-6, -3, -7, -5, -8, -4, -8, -19
1503942735455,-2, -2, 0, 3, 2, -2, 0, 11
1503942735470,-13, 1, -2, 0, -6, 1, 11, 6
1503942735477,16, 4, -1, 3, 12, 0, -11, -32
1503942735484,-1, -4, -5, -7, -15, -2, -10, 0
1503942735501,0, -3, 0, -1, 8, 0, 1, 11
1503942735506,-4, 0, -9, -5, -1, -2, -2, -7
1503942735514,-15, 16, 24, 9, -7, 2, -7, 0
1503942735531,4, -9, -6, -1, -4, 0, -17, 22
1503942735537,11, -4, -4, -7, -6, -5, -2, 0
1503942735544,7, 14, 4, 3, 0, 3, 4, -1
1503942735559,-4, -5, -3, 1, -3, 2, 0, -4
1503942735566,-7, -3, 2, 4, 11, -4, -12, 0
1503942735574,22, -5, -12, -3, -6, -6, -10, 20
1503942735589,0, -2, 5, 0, 2, 1, 8, -7
1503942735597,27, -6, -6, -2, 1, 1, 9, 0
1503942735605,11, 7, 3, -5, -6, -1, 1, -15
1503942735620,-22, -4, -9, -2, -4, 0, 7, -1
1503942735626,-1, -6, -10, 0, 0, 1, 8, -1
1503942735634,12, 8, -5, -4, -1, -2, -2, -25
1503942735649,10, -8, -3, -4, -4, -7, 7, -28
1503942735664,-9, -3, 6, 3, -3, 4, 6, 5
1503942735665,6, 6, 8, 5, 2, 4, -2, -3
1503942735679,2, 1, 3, 1, 3, 7, 8, 10
1503942735686,-37, -1, 12, 6, 5, 3, -3, 26
1503942735694,0, -12, -2, -2, -7, -2, 1, 18
1503942735709,-2, -10, -6, -3, -3, -4, -1, 19
1503942735717,-43, 2, 1, 0, 2, -4, -11, -27
1503942735732,3, 2, -6, -3, -6, -4, -4, -24
1503942735740,20, 11, -5, -5, -4, -1, -4, 2
1503942735746,-1, 4, 8, 4, 4, 3, -1, 5
1503942735754,1, -5, -6, -2, -3, -4, -6, -15
1503942735769,-29, -1, 0, 1, -2, -3, -1, -2
1503942735777,8, 9, -1, -1, 2, -1, 7, 11
1503942735784,15, 12, 12, 1, 5, 2, 4, 6
1503942735799,2, -18, -1, 0, 0, -1, -3, 11
1503942735807,-35, -16, -13, -3, -3, -4, 7, -3
1503942735814,1, 16, 10, 0, 1, 1, -5, -9
1503942735829,2, -1, -2, -2, -3, -5, -11, -13
1503942735837,-8, -14, -13, -4, -1, 0, 6, 33
1503942735844,28, 10, 6, 0, 0, -1, 1, -17
1503942735859,-3, -6, -2, 5, 3, 0, -4, -8
1503942735866,-20, -5, -9, -4, -5, -3, -5, 5
1503942735876,3, 2, -3, -3, -3, -3, -5, -3
1503942735889,-9, 4, -8, -3, -4, 0, -2, -5
1503942735899,-9, 2, 2, -2, -2, -3, -5, -15
1503942735904,26, -4, -1, -1, 1, 2, 1, 8
1503942735919,0, -2, 0, -2, 1, 1, 3, 9
1503942735926,-27, -7, -5, -1, -2, -2, -15, 3
1503942735934,-6, 1, 10, 3, 0, -3, 2, 24
1503942735949,-10, -7, -1, -3, 0, -2, 0, -1
1503942735957,-8, -3, -11, 0, -1, 2, 4, -13
1503942735966,19, 20, 8, 0, -4, -2, 0, 3
1503942735979,-4, -3, 7, 1, 0, -3, 2, -5
1503942735986,8, -14, -8, -1, -1, -2, 3, 1
1503942735994,3, -13, -10, -2, 0, 0, -2, -12
1503942736009,-1, -5, 6, 4, 8, 5, 6, -2
1503942736017,3, 0, 0, 0, -1, 0, -7, -12
1503942736024,12, 0, -9, -3, 0, -1, -3, 18
1503942736039,16, -3, 4, -2, 4, -2, 3, 13
1503942736046,25, 8, -4, -9, -2, -1, 4, 4
1503942736054,16, 4, 1, 0, -4, -4, -4, -19
1503942736069,0, -9, -13, -2, -4, -5, 1, 3
1503942736077,-13, 13, -1, 0, 1, 1, 7, 0
1503942736084,-8, 8, 5, 4, -3, 0, 1, -5
1503942736101,-4, 2, -2, -2, 1, 1, 3, -4
1503942736106,-17, -10, -6, -4, 0, -2, 5, -8
1503942736121,12, 8, 3, 3, 7, -1, -16, -12
1503942736129,24, 5, 8, 3, 2, 3, 0, -4
1503942736137,-11, -5, -8, 22, 3, 0, 10, 3
1503942736151,-11, 1, 4, 18, 3, -4, -8, 4
1503942736159,8, -10, -6, 0, 0, -1, -4, -3
1503942736168,12, -2, -10, -4, -3, 2, 0, 5
1503942736181,-14, 2, 5, -6, -2, 1, 4, 2
1503942736189,-3, 6, 7, 0, 3, 1, -6, -1
1503942736197,-8, -2, -9, -12, -3, -2, 0, 1
1503942736211,-8, 3, 1, 2, -1, -1, -6, -6
1503942736219,-8, -5, -3, 0, -1, 3, -1, -3
1503942736226,-10, -5, -3, -6, -1, -1, 1, 0
1503942736241,-9, -4, -2, -7, -4, -4, 2, -13
1503942736248,8, 6, 0, 3, 0, -3, -14, -2
1503942736257,2, -6, -9, -17, -5, -1, -3, 5
1503942736271,-17, -9, -12, -13, -6, -6, -4, -10
1503942736279,17, 19, -10, -18, -6, -3, 0, 2
1503942736286,-4, 10, 11, 5, 0, 2, 2, -3
1503942736302,-1, 3, 12, 8, 3, 4, 5, 1
1503942736309,16, 2, 5, 5, 1, -1, 4, 4
1503942736317,5, 2, 1, 2, -3, -3, -8, 1
1503942736331,-27, -10, -11, -7, -2, 0, 3, 7
1503942736341,-20, -27, -11, -1, -3, -3, -4, 4
1503942736346,9, -8, 2, -2, -1, 2, 1, 2
1503942736371,7, 2, 1, 7, 5, 2, -4, -5
1503942736378,23, 14, 9, 12, 4, 0, -5, 1
1503942736391,-57, -4, -11, -14, -3, 0, 1, 2
1503942736399,8, 6, -9, -5, -3, -1, 4, 0
1503942736407,1, -4, -12, -11, -5, -2, -1, 3
1503942736421,-4, -1, 10, 6, 3, -1, -4, -1
1503942736429,21, 3, 8, 4, 1, 1, 6, -4
1503942736437,-37, -2, 2, 7, 3, -2, -10, -4
1503942736451,20, -9, -7, -2, -6, -1, -3, -4
1503942736459,3, 14, 4, 0, -2, 0, 3, -3
1503942736466,-6, 10, -2, 3, -4, -3, 1, -6
1503942736481,-9, -2, 2, 3, 2, 5, 7, 1
1503942736489,7, -3, 19, 21, 1, -2, -7, -4
1503942736504,-2, 3, -3, 0, -3, 0, 0, 2
1503942736512,5, -8, -8, -14, -4, -4, -1, -6
1503942736519,1, -1, -2, 3, 1, 0, 1, -4
1503942736526,21, 2, -11, -11, -7, -6, -1, 13
1503942736541,23, -5, -2, -5, -2, -1, 3, -2
1503942736549,3, 5, 13, 6, 6, 1, 3, 5
1503942736556,-26, -2, -17, -12, -9, -4, -3, 3
1503942736557,-5, 6, 8, 3, 5, 1, -5, 3
1503942736571,-28, -5, -4, 1, 0, -2, 3, 2
1503942736579,8, -4, -10, -11, -10, -8, -3, 12
1503942736586,15, -3, -6, -5, 1, 3, 2, 4
1503942736601,18, 1, -4, -1, 0, -2, -1, -8
1503942736609,1, 4, 3, 0, -4, -1, -3, 4
1503942736616,5, 0, -8, -17, -6, -5, -3, 6
1503942736631,-16, 12, 10, 10, 2, 1, -7, -24
1503942736639,-20, -12, -10, 1, -4, -1, -5, -19
1503942736646,58, 1, -4, -14, -5, -5, 1, 4
1503942736661,-3, 2, 8, 7, 5, 3, -1, 2
1503942736668,0, -2, -4, 2, 1, 3, 5, -3
1503942736677,-19, 4, 0, -1, 1, -2, -7, -4
1503942736691,-26, -3, -5, 0, 0, 0, 3, 4
1503942736699,-17, 1, -9, -8, -4, 0, 2, -5
1503942736706,-15, -1, -4, -6, 1, -4, -4, -5
1503942736721,18, -2, -7, 0, -8, -3, 0, -1
1503942736728,-20, -9, -2, 1, 2, -1, -1, -14
1503942736738,-20, -6, 3, 4, 4, 0, -1, -4
1503942736751,-3, -12, -5, 1, -1, -2, -1, 7
1503942736759,-5, -4, -6, -3, -5, -2, -2, 0
1503942736766,-4, -11, -10, -9, -4, -3, -2, 2
1503942736781,2, 8, 12, 6, 5, 1, 2, -1
1503942736788,3, 22, 5, 3, 3, 0, -1, -3
1503942736796,2, -5, -7, -7, -5, -3, 1, 2
1503942736797,-11, -8, 0, 3, 2, 0, -4, -2
1503942736811,4, -3, 1, 1, 3, 5, 3, 7
1503942736819,22, 5, -4, -2, 2, 0, 1, 1
1503942736826,-23, -2, -2, 4, 1, 1, -2, -2
1503942736841,15, 4, -8, -7, -8, -7, -5, 0
1503942736849,1, 1, 4, 7, 5, 0, -2, -3
1503942736857,-11, -5, -7, -14, -11, -3, -5, -8
1503942736874,-18, 4, 12, 44, 15, -1, 5, 2
1503942736879,-10, -2, 0, 4, 0, -5, -7, 0
1503942736886,3, -12, -10, -15, -13, -3, -4, 1
1503942736901,-2, 3, 0, 0, -2, 1, 2, 1
1503942736909,-1, 10, 1, -4, -2, -8, -2, 1
1503942736918,-6, -9, 2, -1, 23, 5, -1, 0
1503942736931,10, 10, 13, 57, 35, 4, 0, 0
1503942736940,-8, 0, -3, 4, 8, 4, 7, 2
1503942736946,0, -3, 3, -7, 33, 3, -4, -4
1503942736961,-11, 5, 5, 36, -9, 3, 1, 1
1503942736968,-19, -16, -3, -1, 4, 6, 5, 3
1503942736977,-7, 1, -5, -9, -3, -4, 1, -1
1503942736991,-3, 10, -6, -24, -23, -5, -3, -6
1503942736999,0, -12, -4, -6, -8, -1, 0, -1
1503942737007,19, -1, -4, -16, 2, 0, -4, 2
1503942737021,-6, -1, 0, -6, -28, -3, -1, 0
1503942737029,6, 3, 0, -21, -21, -2, -4, -4
1503942737044,16, -4, 0, 2, 4, 1, -2, 4
1503942737051,-8, 15, -5, -7, -21, -3, -2, 0
1503942737059,3, 7, -1, -6, -1, -3, -3, -1
1503942737075,-1, -3, -6, -5, -4, 0, -2, -3
1503942737081,0, 15, 7, 0, 3, 2, -6, -4
1503942737089,39, 7, 1, -6, -10, -1, -2, 0
1503942737103,8, -9, -7, -10, 0, -2, 3, 3
1503942737111,-13, -24, 1, 9, 34, 6, -1, -3
1503942737119,5, 15, 1, -1, 8, 2, 1, -1
1503942737133,-11, 4, -10, -10, -19, -3, -1, 1
1503942737142,11, 10, 1, 4, 4, 1, -3, 7
1503942737149,-5, 0, -2, -7, -11, -3, 1, 1
1503942737164,-18, -6, -2, 0, -11, -2, -1, -2
1503942737171,-1, -2, -1, -6, -4, -2, 1, -1
1503942737179,-6, -10, -6, -6, -2, 3, 1, -5
1503942737194,-1, -13, -4, 2, 11, -4, -2, -3
1503942737201,3, 10, 4, -6, 8, 6, 0, 1
1503942737202,-9, -5, -4, -2, 2, -1, -3, -2
1503942737209,-8, 7, -4, -5, -21, -4, 0, -1
1503942737223,-3, -14, -3, 2, 1, -3, -4, -5
1503942737231,-3, -14, -2, -8, -11, -1, 1, 3
1503942737239,11, 4, 1, -7, 9, -4, -7, -5
1503942737254,-2, 1, -2, 1, 2, -1, -1, -6
1503942737262,0, -2, -1, -5, 10, 8, 1, -2
1503942737269,16, 12, -10, 1, 7, 0, 1, 0
1503942737284,-7, 6, 9, -2, -21, -2, -1, -3
1503942737285,-3, -1, -4, 1, 1, -5, -1, -3
1503942737292,-11, -4, -6, -3, -2, 0, 0, 2
1503942737299,1, 0, 0, 2, -1, 0, 5, 2
1503942737314,-6, -2, 4, 4, 2, -1, 1, -1
1503942737322,-3, 4, 5, 1, -5, -2, -2, -3
1503942737328,-2, -13, -2, -8, -4, 3, 1, 0
1503942737344,-11, 5, 4, 4, 10, 2, 3, 2
1503942737357,-1, 7, 13, 2, -4, -2, -4, 0
1503942737359,3, 7, -11, -5, -26, -1, 0, 3
1503942737374,-7, -9, -7, -3, 4, 0, 2, 0
1503942737381,-5, 5, 8, 5, -7, -3, -1, 0
1503942737388,-1, -4, -9, -2, -17, -4, -1, -1
1503942737403,-3, -7, 1, -3, 3, -2, 3, 1
1503942737412,6, 3, 7, 0, 18, -4, 4, 0
1503942737419,-3, -10, -9, -2, -4, -1, 1, 11
1503942737434,-2, 7, 3, 2, 1, 1, -1, -3
1503942737444,13, 11, -4, 1, 4, -2, -3, -3
1503942737449,12, -12, -12, -6, 6, 2, -3, -1
1503942737464,-5, -5, -2, -1, 4, 2, 2, -5
1503942737472,1, 10, -3, 0, -17, -2, -3, -1
1503942737480,-2, -18, 3, -2, -1, -3, -3, -2
1503942737494,-14, -15, 1, 2, -7, 0, 2, -1
1503942737502,1, -8, -9, -3, -1, -4, -1, -2
1503942737512,3, -4, 4, 1, -2, -3, -3, 0
1503942737523,-6, 2, 5, 4, 4, 2, 7, -3
1503942737531,-10, 4, -7, -5, 7, -8, -2, -2
1503942737539,1, 12, -8, -6, 3, -1, -2, -1
1503942737553,1, 10, 3, -2, 13, 8, 1, 1
1503942737561,4, 8, 9, 7, -10, -2, -2, 1
1503942737568,-3, 1, -1, 7, -11, -3, -4, -2
1503942737584,-9, -2, -6, -9, -3, 2, -2, -4
1503942737591,-2, -13, -6, -3, 3, 4, -2, -3
1503942737599,1, 7, -9, -16, -20, -7, -8, -7
1503942737614,-6, 4, -8, -7, 4, 1, 2, 0
1503942737622,0, -9, 4, -1, 13, -1, -6, -4
1503942737628,3, 4, 6, 3, -13, 1, 3, 2
1503942737650,-3, -5, -2, 3, -2, -5, -1, -2
1503942737651,0, 5, 1, 0, 9, 0, -3, -1
1503942737659,17, 6, 5, 8, -9, 7, 6, 4
1503942737673,-3, -20, -4, 5, -26, -2, -1, -2
1503942737681,-4, 6, -3, 1, -3, -2, -2, 2
1503942737689,2, 12, 7, -2, -6, -4, -4, -2
1503942737704,-9, 6, 1, 8, 7, -1, 2, 1
1503942737712,2, 12, -4, 1, 9, 2, -2, 0
1503942737719,-9, -6, -5, -5, -4, -2, -5, -2
1503942737733,-4, 13, 2, -4, -3, -2, -4, 1
1503942737741,-2, -8, 6, -4, -7, -2, -2, -3
1503942737749,-10, -8, -7, 4, 13, -1, 5, 0
1503942737763,-2, 9, 4, 2, -3, 8, -5, 0
1503942737771,17, 8, 4, -3, -2, -3, -4, 0
1503942737782,-6, -11, -3, 1, 9, -1, 2, 0
1503942737794,3, -5, -7, -6, -3, -2, -1, 0
1503942737802,5, -10, -8, -8, 1, -5, -2, -2
1503942737809,0, -24, -2, 6, 0, 4, 0, -1
1503942737824,27, 19, 17, 3, 4, 0, 0, 1
1503942737831,-9, 0, -2, -3, 2, 0, -3, -3
1503942737839,-4, -2, -7, 11, 11, 0, 2, -1
1503942737853,3, 15, 3, -2, 8, 0, -3, 0
1503942737861,-11, -1, -13, -14, -7, 4, -5, 1
1503942737869,-7, 0, -7, 10, 14, 1, 4, -3
1503942737884,-1, -11, 6, 12, 5, -6, 4, -3
1503942737891,-2, -13, -10, -11, -11, -3, -1, 2
1503942737899,-4, 20, 20, 11, 12, 1, 3, 1
1503942737914,1, 7, 2, 3, -14, -2, -3, 4
1503942737923,-3, -11, -8, -16, -16, -3, -1, -1
1503942737928,11, -5, -1, 1, 4, -1, 2, -1
1503942737943,7, 3, -15, -2, 2, -2, -8, -8
1503942737951,-9, -22, 1, -1, 15, -4, 5, -2
1503942737967,-5, -5, -9, -4, -4, -3, -1, -3
1503942737973,-8, -16, -2, -2, 20, -4, -1, 3
1503942737974,-3, 11, -10, -13, -23, -2, -2, -3
1503942737983,-16, -8, -6, -1, 7, -1, 1, 3
1503942737995,-4, 1, 2, -5, -8, -1, -1, -1
1503942738004,1, -9, -12, -4, -12, -7, 0, 2
1503942738014,-32, -2, 8, 0, -17, -10, -6, -7
1503942738026,-4, 12, -2, -5, 0, 1, 3, 2
1503942738033,2, 18, 2, -2, 6, 0, -15, -1
1503942738042,-1, -8, -2, -6, -3, -4, 3, 5
1503942738055,-1, -6, -4, 14, 9, 0, 3, 3
1503942738063,20, -6, -3, 4, 8, 4, -6, -5
1503942738071,0, -3, -3, -3, -1, -2, 2, -2
1503942738087,9, 18, 7, 0, -11, -2, 0, -1
1503942738094,19, -10, 1, 0, -22, 0, -5, -6
1503942738101,-1, 6, 13, 4, 0, 10, 5, 2
1503942738115,4, 8, -2, 0, 11, 5, 3, 2
1503942738123,-7, -9, -4, -1, 4, 0, 1, 1
1503942738131,-11, -8, -2, -6, 11, -1, -1, -1
1503942738149,-12, -6, -3, 1, 2, -3, -4, 0
1503942738153,12, 4, 11, 1, 25, 4, -2, 0
1503942738154,0, -7, -4, -10, 2, 0, -2, 3
1503942738161,-14, -9, -12, -11, -25, -6, 2, -6
1503942738175,1, 13, 5, 0, -7, -1, 5, 2
1503942738193,9, -1, -2, -2, -19, 0, -3, -3
1503942738206,14, 0, 1, 4, 3, -5, -1, 2
1503942738221,-13, 5, -2, 4, 6, -2, -8, -1
1503942738222,3, -19, -6, -2, 17, 0, 0, 4
1503942738235,-2, -14, 3, -5, -3, -3, 1, -5
1503942738243,-13, 4, 3, -2, -8, -4, -8, -3
1503942738251,3, -15, -13, -5, -22, -9, 0, 7
1503942738266,-10, -17, -6, -1, 2, 1, 1, 2
1503942738283,2, 6, -6, -3, -22, -12, -6, -2
1503942738296,11, 13, 3, 4, 9, 2, -1, 3
1503942738303,-3, 0, -2, -2, -4, -3, -2, -2
1503942738311,-10, 0, 2, 4, 14, 5, -4, -4
1503942738326,-8, -5, 1, 2, 6, 0, 1, 0
1503942738333,21, 8, 2, 1, 6, 2, 3, -1
1503942738342,7, 14, 3, -3, -2, 1, -1, -1
1503942738356,5, 1, 4, -1, 6, 1, 1, -1
1503942738364,-4, -6, -6, -4, 10, 12, 1, -1
1503942738371,-2, 7, 2, 4, 25, 3, -4, 0
1503942738386,-12, -13, -5, -3, -7, -2, -3, 2
1503942738394,10, -5, 6, 1, 0, 5, 2, 5
1503942738401,-8, -12, -6, -3, -6, 1, 0, -4
1503942738418,-14, -6, -4, 7, 1, -1, 2, -2
1503942738424,0, 0, 18, 4, -1, -3, 0, 5
1503942738431,-6, -14, -10, -2, -11, -3, 1, -2
1503942738446,0, 13, 1, 1, 7, -3, -3, -9
1503942738454,-6, 7, -2, -3, -16, -4, -2, -2
1503942738462,1, -1, -4, -5, -13, -5, -5, -6
1503942738475,31, 16, 7, 4, 3, 0, -2, -4
1503942738484,-4, 7, -3, 0, 3, -1, -6, -4
1503942738492,-3, 0, -7, -3, 4, -1, -5, -3
1503942738493,-11, -3, -6, -3, -20, -4, 0, 0
1503942738506,24, 2, 4, 1, 7, 5, 7, 3
1503942738515,-4, 0, -15, -16, 2, -1, 0, 4
1503942738522,9, -1, -8, -1, -12, -2, 3, 17
1503942738535,-24, -14, 9, 4, 5, -5, 3, -2
1503942738543,-23, -7, -6, -11, 23, -1, -6, -4
1503942738551,1, 3, -3, -3, 13, 2, -2, 11
1503942738566,13, 1, -2, 2, -9, -11, 2, 5
1503942738573,-1, -12, -4, -16, -2, 4, 4, -2
1503942738574,-26, 9, -7, 1, -5, 1, 1, -4
1503942738584,-23, -1, -3, 0, -4, -3, -2, -16
1503942738595,-10, -8, -6, -4, -3, -3, 2, -13
1503942738603,40, 13, 11, 7, 0, 5, -3, -19
1503942738611,-21, 14, -6, -2, 0, -3, -8, -19
1503942738628,-1, -12, -1, 7, 1, 3, -4, -41
1503942738633,7, 10, 4, 2, 10, 2, 1, -8
1503942738642,-5, -11, -19, -7, 1, 2, -6, 21
1503942738656,-13, -13, -6, -5, -2, -1, 1, 10
1503942738663,-26, 2, -2, -1, -2, -1, 1, -35
1503942738671,31, -4, 3, 3, 6, 1, 1, 24
1503942738687,22, 14, 0, -6, -7, -8, -4, 12
1503942738694,23, 4, 2, 1, -4, 5, -12, 8
1503942738701,-19, 5, 1, 1, -2, -1, -4, -45
1503942738715,21, -6, -3, -5, -2, -5, -8, -9
1503942738724,-3, 0, 5, 4, 5, 7, 20, 23
1503942738731,-50, -8, -9, -1, -3, -5, -8, -30
1503942738746,0, 2, 2, 0, -5, -3, 2, 14
1503942738754,-8, -5, 8, 3, 3, -1, -7, 20
1503942738762,2, 4, -1, -2, 1, 3, -8, 4
1503942738775,13, 1, 1, 1, 2, 4, 12, 12
1503942738786,4, 16, 7, 3, 2, 4, 20, 14
1503942738787,14, 1, 4, 0, -1, 2, -8, 46
1503942738791,-29, -6, -5, -4, 0, 2, 8, 5
1503942738806,-21, -20, 1, 7, 5, 2, 13, 8
1503942738813,4, -3, 0, 1, 7, -3, 4, 3
1503942738822,2, 5, 1, -4, -6, 10, 3, 5
1503942738835,20, -8, -3, -3, -7, -1, -9, 1
1503942738843,10, 1, -9, -4, -4, -11, -20, -38
1503942738852,9, 2, -2, -3, 3, 4, 14, -8
1503942738866,0, -11, -5, 0, -1, -3, 15, -20
1503942738873,-25, 6, 2, 2, 0, -3, -10, -4
1503942738881,-11, -1, -3, -5, -18, -7, -5, 29
1503942738895,5, 3, -8, 1, -1, -4, 3, 38
1503942738903,-6, 1, -3, -3, -2, 0, 2, 17
1503942738921,5, -10, 4, 3, -3, -1, -4, 0
1503942738926,-5, 0, 0, 0, -3, 0, 1, 7
1503942738940,-5, -1, 0, 0, 4, 1, -6, -22
1503942738948,1, 5, 2, -2, 4, -1, -3, -23
1503942738963,-19, -9, 5, 2, -5, -2, 12, 0
1503942738964,9, 0, 2, 1, 13, 6, 16, -5
1503942738978,-18, 5, -2, -2, 0, 0, 4, 15
1503942738987,-1, -4, -5, -5, -9, 0, -4, 15
1503942738993,20, 12, 0, -4, -5, -2, 4, -17
1503942739008,12, 1, -8, -2, -3, -6, -5, -7
1503942739015,0, 6, -2, -3, -3, -3, -8, -36
1503942739024,33, 22, 0, -3, 1, -3, -7, -13
1503942739038,1, 0, -2, 2, 3, -1, 8, 7
1503942739046,-15, -1, 0, -3, -2, -1, -5, 1
1503942739055,1, 0, 1, -3, -3, 2, 15, 5
1503942739068,-1, -7, 3, -1, 1, -2, -1, 5
1503942739075,-5, -12, -6, 0, 3, 0, -7, -13
1503942739084,7, 1, -2, 0, 1, 0, -8, -11
1503942739098,24, 4, 1, 2, -1, 0, -2, 50
1503942739106,9, 3, 0, 3, -1, -2, -18, 27
1503942739114,-4, -5, 4, 0, 0, 0, -9, 0
1503942739129,-22, -7, -4, 1, -2, 1, 9, 7
1503942739135,-4, 4, -2, -3, -4, -1, -2, -12
1503942739143,6, -1, -3, -1, -2, -1, -1, -11
1503942739158,37, 13, 7, 1, 0, 1, -4, -5
1503942739166,-24, -16, -4, 2, 2, 2, 5, -9
1503942739173,-13, -1, -9, -4, -4, -3, -9, -25
1503942739189,9, 3, -1, -1, 0, -2, 6, 11
1503942739196,-25, -4, 1, 2, 1, 3, 5, -16
1503942739204,-18, -6, 4, 0, -1, -1, -1, 19
1503942739218,18, 7, 5, 2, 2, 3, 7, 12
1503942739226,-15, -1, 3, 3, 0, 3, 1, 20
1503942739234,-25, 14, 11, 3, 0, -5, -13, -14
1503942739249,12, 4, -3, -2, 1, -2, 9, -6
1503942739255,-6, -1, -10, -5, -3, -4, -7, -14
1503942739264,11, 7, 8, 0, -3, -1, -5, -30
1503942739278,6, -17, -9, -9, -4, -4, 2, 15
1503942739288,-2, 9, 5, 8, 5, -1, -8, -11
1503942739289,-30, -6, -9, -4, -4, -4, -7, -13
1503942739293,2, 0, -1, -1, 3, -1, 14, -6
1503942739308,0, 1, -3, -2, 4, -3, -3, -18
1503942739315,-6, -4, -7, -3, -2, -6, 0, 0
1503942739324,-7, -7, 0, 3, 0, 0, -2, 2
1503942739338,25, 23, -3, -7, -5, 1, 15, 33
1503942739346,-21, -13, -5, 2, 1, 0, -15, -5
1503942739363,-10, -18, -6, 3, 3, 3, -3, -14
1503942739370,0, -1, 4, -2, 4, 8, 27, 29
1503942739375,-13, -5, -2, 0, -2, -3, -3, -32
1503942739383,34, 6, -3, -4, -6, -4, -5, -5
1503942739398,0, 2, 4, 1, 4, -1, -2, -1
1503942739406,-35, -7, -1, 2, 0, 1, 4, 2
1503942739413,-9, 4, -6, -3, -6, -12, -7, 10
1503942739429,3, 8, 4, 2, 1, 1, 0, 8
1503942739435,5, -4, -5, 2, -3, 1, -6, -14
1503942739443,11, 5, -3, -1, 0, -1, -1, 16
1503942739444,-4, 6, 3, 0, 0, -1, 6, 5
1503942739458,-9, -4, 5, 3, 3, 3, 4, 15
1503942739466,14, 5, -1, -2, 0, 1, 6, -7
1503942739473,33, 4, 4, -1, 0, 3, -6, 9
1503942739489,15, -4, -5, -6, -6, -5, 1, -5
1503942739495,-61, -5, -3, 0, -1, 1, 2, -25
1503942739504,38, 6, -2, 1, 0, -3, -7, 5
1503942739518,15, 1, -10, -3, -3, -3, -2, -4
1503942739526,-26, -1, -5, -2, 0, -2, -2, -12
1503942739533,-27, -3, -1, 1, -2, -4, -19, 8
1503942739548,-7, -6, 4, -1, 1, -1, -5, 4
1503942739556,9, -10, -7, -4, -2, 0, 5, 24
1503942739565,5, 21, 15, 3, -3, -2, -17, -5
1503942739578,-3, -4, 0, 2, 1, 1, 9, -4
1503942739586,-41, -17, -15, -5, -7, -2, -3, -9
1503942739593,30, -2, -1, -1, -1, 3, 1, -4
1503942739608,-5, -2, -3, 1, 2, -2, 7, 26
1503942739615,-3, 8, 3, -3, -4, -4, -16, 3
1503942739624,7, -2, -9, -5, -2, 1, 6, 4
1503942739638,46, -1, 1, 0, -2, -2, -1, -23
1503942739646,8, 1, -5, -4, -5, -4, 5, 3
1503942739653,-12, 1, 1, -1, 0, 1, 1, 4
1503942739669,-7, -11, 3, -1, -2, -4, -6, -22
1503942739675,-4, 9, 9, 5, 7, 1, 1, -3
1503942739684,8, 11, -3, -3, -3, 1, -3, -18
1503942739699,-9, 1, 3, 4, 2, 2, 3, 32
1503942739706,-16, -7, -7, -7, -6, -3, -5, 4
1503942739713,-38, -12, -6, 0, -4, -2, 5, -2
1503942739729,-9, -4, -10, -4, -6, -7, -22, 0
1503942739735,-3, -3, -6, -1, 0, 1, 0, 1
1503942739743,11, -2, 3, 4, 3, 0, 13, -4
1503942739758,10, -5, -2, -3, 1, -1, 3, 4
1503942739766,-4, 0, 1, 1, 0, 0, 1, 20
1503942739773,29, 6, 5, 1, -3, -2, -1, -1
1503942739790,-5, 2, 5, 0, 3, 2, -1, -3
1503942739795,24, 7, -5, -4, -3, -8, -12, -2
1503942739803,3, 5, 1, -2, -1, -3, -17, -29
1503942739818,13, -3, -6, -2, 0, 0, -1, -6
1503942739828,4, -2, -9, 1, 0, 1, 1, 5
1503942739840,-8, 0, -3, -5, -4, -3, -5, 0
1503942739848,3, -2, 4, 6, 5, 3, -2, 2
1503942739858,-18, 6, 9, 3, 2, 1, 0, -11
1503942739871,6, 5, -3, -6, 1, 2, 4, -4
1503942739878,-11, -9, -9, -10, -3, -3, 3, -3
1503942739886,0, -4, -1, -3, -1, -1, -3, 0
1503942739900,-3, -1, -3, 1, -1, -2, -2, 4
1503942739908,13, 2, -4, -1, -3, 1, 11, 5
1503942739915,-2, -4, -1, -1, 1, 1, -5, -4
1503942739931,6, -4, 9, 3, 1, 1, 4, 10
1503942739938,-4, 0, 5, -5, -3, 1, 3, -3
1503942739946,-2, 5, 1, 7, -1, 1, -1, -2
1503942739960,-8, 2, 1, -5, -2, -1, -2, -5
1503942739969,-12, 1, -3, -7, 4, -2, -6, -6
1503942739975,-1, -12, -5, 10, 2, 4, 5, 1
1503942739991,12, -8, -8, -1, -1, -3, 1, 7
1503942739998,0, -3, 5, 15, 21, 2, 0, 2
1503942740006,-9, -4, -7, -13, -13, -1, 0, -1
1503942740020,11, 13, 0, -3, -4, 0, -3, -2
1503942740028,-13, 1, -3, 15, -1, -2, -2, -4
1503942740035,-14, 1, -3, 1, -4, -1, -2, -8
1503942740051,1, -2, 2, 0, 1, -1, -1, -1
1503942740060,-5, 7, 6, -7, -2, -1, 4, -8
1503942740066,1, -15, -13, -9, -1, -3, -6, -3
1503942740080,-2, -18, -7, 10, -4, 1, 6, -1
1503942740088,12, 1, 2, 1, 5, 0, -9, 3
1503942740104,-10, -4, 2, 15, 1, 1, -5, 2
1503942740111,-13, 2, -6, -3, -1, -1, 5, -2
1503942740119,3, -1, -7, -11, -6, -3, -5, -1
1503942740127,-9, -1, 6, 5, 2, 2, -3, -3
1503942740142,-9, 14, -1, -4, 1, 1, 2, 3
1503942740149,-16, -5, -7, -8, -1, -1, -4, -12
1503942740164,-1, -19, -9, -3, -4, -4, -8, 4
1503942740172,2, -7, -3, 2, -3, 2, 9, -1
1503942740179,3, -1, -9, -1, -3, -1, -1, -6
1503942740186,0, 0, 0, 1, -4, -3, -5, -4
1503942740202,5, -10, -12, -16, -2, 2, 3, -5
1503942740208,-7, 8, 10, 4, 1, 0, -7, -7
1503942740227,-9, 9, 12, 4, 2, 5, 6, 1
1503942740231,-3, -3, -2, -1, 1, 1, 3, -3
1503942740246,-49, -16, 0, -5, -1, -1, 1, 1
1503942740247,-4, -4, 2, 4, 1, 1, 7, 5
1503942740266,16, 2, -6, -15, -6, -3, 2, 3
1503942740269,2, 8, -2, 2, -2, -3, -4, 2
1503942740284,13, -5, 1, 3, 0, -3, -2, 3
1503942740294,24, 16, 1, -2, 1, 0, -2, -5
1503942740300,11, 2, 0, 0, 1, -3, -6, -4
1503942740306,-13, 11, 13, 10, 4, 5, 7, -11
1503942740322,-7, -1, -7, -3, -5, -3, 8, 5
1503942740329,3, 12, 12, 8, 0, -1, 3, 10
1503942740344,1, 2, 0, 0, 2, 1, 2, -5
1503942740351,-10, -12, -10, -5, -2, -2, -11, -3
1503942740363,12, 0, 7, 1, -1, -1, -8, 1
1503942740367,-13, -2, -4, -5, -2, -3, -3, -9
1503942740382,6, 18, 3, -3, -1, -1, -2, 2
1503942740389,16, -18, -14, -6, -5, -2, 0, 6
1503942740404,-8, 1, -1, 1, 0, 0, -2, 1
1503942740411,-12, -3, -4, -5, 1, -1, 1, -3
1503942740419,1, 6, -5, -6, -8, -5, -4, 1
1503942740427,18, 9, 12, 2, 0, 0, 1, 4
1503942740441,-3, 6, 9, 30, 2, 0, -7, -1
1503942740448,14, -4, -12, -7, -4, -1, 2, 7
1503942740464,1, -1, -5, -8, 1, 0, -1, -3
1503942740471,0, -4, 17, 5, 2, 0, 0, -10
1503942740479,1, -6, -6, -5, 0, -1, 5, -13
1503942740486,4, -1, -4, -4, 0, -4, -3, 3
1503942740502,15, 14, 13, 3, 1, 0, 9, 7
1503942740509,2, 17, 2, 1, 4, 2, -8, -1
1503942740524,-11, -12, -11, -2, -2, -1, -1, -1
1503942740531,-7, 5, 1, 3, 2, 1, 8, 1
1503942740539,7, -4, -9, -7, -1, -3, -10, -1
1503942740546,-3, 7, 6, 3, -4, -1, 4, -8
1503942740562,-18, -4, 2, -4, 1, 0, 0, -10
1503942740569,-8, 16, 0, -6, 0, -1, 2, 4
1503942740584,-6, -17, -6, -2, 2, -1, -7, 0
1503942740591,-2, -19, -8, 0, -1, -2, 1, 4
1503942740599,1, 2, -5, -4, -5, -1, -1, -2
1503942740606,-6, -14, -9, -3, -4, -1, 0, 5
1503942740622,1, -4, 1, 0, 3, 0, -1, 0
1503942740628,-3, -2, -7, -4, -2, -1, 5, -1
1503942740644,-13, 0, 7, 1, 2, 2, -1, -6
1503942740651,0, -1, -1, 1, 9, 2, -3, 1
1503942740659,-3, 3, 1, 1, -11, -3, 0, -2
1503942740666,13, -8, -10, -7, -5, -4, -7, 0
1503942740681,0, 1, -1, 3, 0, 2, -4, -5
1503942740689,-5, -3, -6, -7, -6, -1, -3, -4
1503942740705,4, -9, -2, 1, 11, -1, 1, 3
1503942740711,3, -6, -2, 0, 3, -1, 2, -3
1503942740719,-11, 19, -3, -6, -4, -1, 4, 5
1503942740726,-18, 4, 2, 0, -7, -1, -5, -20
1503942740741,2, -11, -3, 4, -7, -2, -5, -4
1503942740749,-11, -1, -9, -10, -6, -3, -1, -4
1503942740764,-13, 8, 4, -1, 2, -2, -2, -5
1503942740772,4, -8, -5, -2, -1, -2, -4, -3
1503942740780,12, 4, 2, -1, 5, 1, 1, 5
1503942740796,-5, -8, 4, 13, 7, 0, 0, 6
1503942740801,6, -13, -7, 3, 0, 0, 6, 4
1503942740808,-10, 5, -3, -3, -3, -2, -7, -2
1503942740824,2, -3, -5, -6, 4, 0, 0, 4
1503942740831,-8, 10, -3, 1, -6, -4, -6, -9
1503942740839,17, 5, -6, -6, -6, -2, -2, -2
1503942740854,17, -4, -2, -1, 3, 1, 1, 9
1503942740863,7, -4, -3, -1, -2, -1, -3, -4
1503942740869,-9, -2, 3, -2, -3, -1, 3, 8
1503942740891,-1, 0, 0, -6, 2, 0, 0, 3
1503942740892,1, 1, -2, 4, -3, 0, 0, 2
1503942740906,-5, 3, -2, -2, -9, -3, -2, 1
1503942740913,1, -6, 3, -1, 2, 1, 3, 2
1503942740922,4, 0, 3, 3, 1, 0, -3, -4
1503942740930,1, 16, 2, -2, -3, 0, -2, 6
1503942740944,-6, 2, 0, 5, -7, 0, -3, -8
1503942740951,13, -3, -4, 2, -3, 1, -1, 13
1503942740959,-1, 1, 5, 3, 13, 1, 1, -2
1503942740974,-2, 4, -3, 3, 0, -2, 0, -6
1503942740981,7, 2, 1, 0, -5, 2, 1, -4
1503942740982,-7, -12, -3, -5, -1, -1, -1, -6
1503942740999,25, -2, 2, -3, 3, 2, -16, 7
1503942741004,-12, 4, -1, -2, 14, 3, 0, 15
1503942741011,-8, -8, -7, -5, -3, -5, 0, -17
1503942741019,-1, 9, 2, -2, -13, -7, -1, 2
1503942741034,-8, 2, 2, -2, 9, 0, 8, 2
1503942741041,16, 7, -2, -2, -4, -2, 4, 0
1503942741048,12, 13, 11, 5, 3, 1, -2, 13
1503942741065,-3, 0, -5, -5, -8, -2, -5, -4
1503942741072,-4, -6, -2, 5, 21, 10, 5, 19
1503942741079,-6, -2, -3, 1, 1, 0, -13, -22
1503942741093,-8, -9, -7, -7, -8, -5, -1, -24
1503942741101,-35, -14, -3, 4, -6, 2, 3, 5
1503942741108,8, 8, 5, -4, 16, 7, 3, -5
1503942741109,7, -6, -4, -1, 3, -2, 0, -1
1503942741124,8, 8, -1, 0, -1, -3, -1, -14
1503942741131,-5, 3, -3, -2, -3, -1, 1, 23
1503942741139,-12, -11, -2, 0, -3, -2, 5, 3
1503942741153,-9, -2, -5, -2, -9, -2, -3, -7
1503942741163,14, 8, 4, -1, -3, -1, 3, -6
1503942741164,2, -9, -5, -1, 0, 1, 2, 27
1503942741172,-10, -8, -7, -5, -5, -4, -3, -24
1503942741184,-7, 0, 1, 1, 13, 3, -1, 0
1503942741191,30, 16, 5, 1, -3, -2, -2, -6
1503942741200,24, 7, 1, 3, 1, -1, -8, 0
1503942741213,0, 6, 4, 2, -3, 1, 7, 3
1503942741222,19, 15, -4, -1, -6, 0, 0, -12
1503942741230,-21, -8, 1, -7, -3, 0, 0, 6
1503942741244,-10, -1, 0, -2, -3, -4, -4, 7
1503942741251,-6, -6, -9, -5, -5, -4, 3, -9
1503942741259,-3, 13, 9, -1, -5, -1, 1, -6
1503942741274,-27, -24, -3, -3, -10, 0, -8, -4
1503942741281,-9, -9, -4, -5, -3, 0, 0, 0
1503942741289,28, 20, 9, 2, 0, 1, 3, 31
1503942741304,-9, -16, 0, 1, -1, -2, -8, 10
1503942741311,-2, -5, -4, -1, 0, -2, 0, -5
1503942741319,-8, -3, -2, -7, 1, -4, 2, -13
1503942741333,6, 0, -2, 1, -2, -1, 0, 0
1503942741334,-9, -8, -1, -1, 1, -3, -3, -9
1503942741341,26, -8, -3, -5, -1, -1, -5, -9
1503942741348,-10, 1, -2, -3, -1, -1, -3, -11
1503942741366,1, -11, -3, 0, -2, -2, 4, 5
1503942741372,0, 1, 2, 2, 2, -5, -14, -21
1503942741379,-2, -3, -6, -4, -5, -4, -4, -20
1503942741393,-9, 3, -1, 0, -2, 1, 6, 0
1503942741402,-11, 10, 2, 1, 2, 2, 2, 5
1503942741409,-12, 1, -2, -2, 1, 2, -4, -6
1503942741424,10, 0, 1, 2, -1, 1, 3, 14
1503942741433,-5, -22, -3, 1, 0, -1, 1, 4
1503942741439,-15, -10, -8, -1, -1, -3, -3, -30
1503942741454,15, 8, 0, 1, 0, -1, -3, -14
1503942741461,-11, -6, -6, 1, -4, -3, 0, 10
1503942741462,-9, 4, 0, -1, -5, 2, 5, 6
1503942741469,6, 6, -3, 2, -3, 1, -3, -6
1503942741484,-16, 14, 0, 2, 3, 1, 5, 6
1503942741491,9, -8, -8, -4, -1, 1, 5, 14
1503942741500,-14, -13, 1, 2, 4, 2, -1, -2
1503942741514,0, 8, 0, -2, -1, -2, 12, 20
1503942741522,19, 0, -3, -2, -1, -5, -10, 9
1503942741528,-22, -12, 1, 0, 2, 2, 2, 6
1503942741544,28, -15, 1, -6, -4, -3, -2, -5
1503942741551,-3, 5, 1, -11, -16, 2, -5, 4
1503942741559,-5, 4, 0, 0, -13, -3, -1, 0
1503942741574,-6, -6, -4, 2, 4, 5, 4, -9
1503942741582,16, 6, 2, -1, 0, -2, 4, -1
1503942741588,0, 0, 2, 2, -1, -2, -11, -1
1503942741604,-15, -1, -1, 4, 0, 0, 2, 4
1503942741611,-16, -6, -3, 3, 5, -2, 1, 9
1503942741619,-4, 12, 0, -1, 0, 3, 0, -11
1503942741634,-1, -1, 2, -5, -2, -3, -1, -8
1503942741642,2, 31, 18, 9, 5, 3, 5, -3
1503942741649,6, -6, -7, -1, -3, -2, -1, -4
1503942741667,1, -4, -8, -7, 0, -1, -6, -1
1503942741672,2, 0, 0, 0, 0, -2, -1, -5
1503942741679,-5, -9, -5, -4, -2, -1, 2, 11
1503942741693,9, 8, -2, 0, -1, -3, 0, -11
1503942741694,23, 8, 1, -1, 1, 1, 6, 4
1503942741702,4, -5, -5, 0, 1, 0, 1, 4
1503942741717,34, 20, 2, 0, 1, -2, -3, -6
1503942741724,-54, -9, 2, 0, 0, 0, -4, -1
1503942741731,-12, 4, 4, 4, 3, -2, 0, 1
1503942741746,8, -11, 4, 0, 0, 1, -3, 25
1503942741753,-8, 11, -6, -3, -2, 0, 2, 13
1503942741761,15, 10, -5, 1, 1, 1, 5, -7
1503942741777,-17, -14, -6, -2, 0, -5, 9, -4
1503942741784,1, 0, -7, -4, -4, -6, -7, -8
1503942741791,4, 2, -2, -1, -1, -4, -6, -7
1503942741809,22, -5, -5, 3, 0, 1, -1, 2
1503942741813,3, 4, -1, 0, -2, -3, -7, -3
1503942741822,3, -10, -8, -2, -1, -1, -7, 5
1503942741836,-13, 8, 3, 2, 1, 4, 4, -19
1503942741844,-29, -6, -5, -1, -3, -3, 6, -1
1503942741851,-22, -7, -7, -5, -4, -3, -7, -8
1503942741869,14, 4, -2, -1, 2, 0, 3, 5
1503942741876,15, 1, -2, 1, 1, 0, -12, -31
1503942741882,16, 9, 0, -3, -1, -2, -8, -11
1503942741896,17, -5, 0, -1, -1, 0, 1, 4
1503942741904,-11, -4, -2, 1, -2, -4, -7, -20
1503942741912,-2, -2, -4, -2, 0, 1, 4, 33
1503942741926,-18, 2, -3, -7, -4, -3, 7, 17
1503942741941,1, -6, 4, 0, -1, -1, -13, -16
1503942741942,-74, -9, -6, -4, -4, 1, 11, 0
1503942741956,10, 2, 2, -1, -1, 1, 3, 5
1503942741964,-3, -5, -1, 1, 2, -1, -3, -6
1503942741971,-29, -10, 1, 0, -1, 1, 11, -9
1503942741986,39, 7, -2, -2, -1, 0, -8, 2
1503942741993,9, -1, -1, -2, -4, -2, -11, -19
1503942742003,9, 3, 1, 2, 2, 2, 5, -6
1503942742016,-41, -21, -5, 1, 0, -6, -10, -8
1503942742024,16, 0, 6, 3, 0, -3, -5, -3
1503942742031,8, -5, -9, -4, -2, -2, 4, -1
1503942742046,17, 5, -1, 2, 2, -2, -5, 0
1503942742053,8, 6, 1, 2, 1, 0, -2, 7
1503942742062,21, 5, 10, 2, 0, -1, -7, 10
1503942742076,-19, 12, 6, -1, 1, -1, -3, -6
1503942742084,31, 14, -3, -2, -1, -2, -1, 4
1503942742091,11, 2, 1, 0, -1, -2, -6, -2
1503942742107,0, 3, -1, 0, 5, 6, 2, -9
1503942742114,8, 3, -2, 0, -2, 1, 3, 7
1503942742124,-69, -28, -2, 0, -1, 0, 0, -2
1503942742136,-8, -2, 3, 1, -2, 0, -2, 9
1503942742144,-17, -8, -12, -3, -4, -4, -10, -30
1503942742151,4, 6, 6, 4, 1, 1, -2, 2
1503942742166,-7, 4, 3, 0, -2, -1, -5, 9
1503942742174,6, 7, -3, -2, -3, 0, 4, -7
1503942742182,18, 1, 0, 1, -1, -8, -2, 10
1503942742196,-16, -2, 2, -1, -1, -5, -6, 11
1503942742204,-1, -8, -3, -3, -4, 6, 7, 1
1503942742212,-16, -3, -9, -5, -4, -1, -4, -29
1503942742226,-18, -5, -3, -1, 0, 1, -6, -7
1503942742233,3, -8, -14, -6, -1, -3, -5, -12
1503942742249,12, 17, 10, 4, 3, 4, 6, 9
1503942742256,1, 0, 1, 1, -1, 0, -4, 13
1503942742264,-3, 0, 0, -2, 2, -2, -5, -8
1503942742272,-10, 6, 1, 1, -1, 2, 8, 9
1503942742286,-4, -5, -2, 2, 4, 0, 12, 10
1503942742293,0, -9, -2, 0, 1, -2, -4, -4
1503942742304,28, 5, 5, 0, 1, 2, -1, -10
1503942742316,-1, -4, 2, -1, 2, 3, 13, 16
1503942742324,-14, 0, -3, 1, 0, 0, -2, -6
1503942742331,5, -2, -2, -2, -4, -3, -6, 9
1503942742346,24, 6, -5, -3, -3, -2, 6, 14
1503942742354,-2, 8, 5, 2, 2, 0, 2, 0
1503942742361,8, -2, -3, -2, -3, -1, 3, 21
1503942742378,-5, -6, -1, 1, 0, -4, -5, -3
1503942742384,14, -3, -6, -2, -8, -14, -3, -13
1503942742391,6, -1, 3, 2, 1, -1, -4, -11
1503942742406,-35, -13, -9, -3, -2, 4, 1, -1
1503942742414,-4, 0, -5, -3, -3, -3, -8, -5
1503942742422,-30, -4, -12, -8, -4, -2, -3, -14
1503942742437,-16, -3, 3, 0, -1, 2, 21, 2
1503942742446,18, 7, 5, 4, 2, 2, -8, 5
1503942742451,7, -4, -3, 0, 3, -2, 4, 27
1503942742466,-3, 1, 3, 3, 2, -5, -12, -7
1503942742474,6, -10, 4, 1, 1, 1, -8, -20
1503942742482,-21, 18, 27, 7, 4, 8, 9, -4
1503942742496,-6, 4, -11, -3, -4, -1, -19, -11
1503942742505,9, -3, -6, -5, -5, -2, 2, 19
1503942742512,0, 2, -2, -1, -1, 1, 0, -35
1503942742526,14, 0, -5, -1, -3, -4, -5, 21
1503942742533,-20, -16, -9, -3, -2, -1, -4, -20
1503942742542,-15, -6, -12, -4, -4, -3, -6, -13
1503942742563,15, 12, 9, 3, 2, 1, 6, 32
1503942742565,-17, 14, -4, -4, -2, -3, 4, -2
1503942742572,13, 19, -2, -4, -5, 0, -3, -14
1503942742586,3, -15, 2, 1, 2, 2, 5, 5
1503942742593,-4, -2, -4, 2, 0, -2, -8, -13
1503942742594,-2, 0, -10, -6, -3, -1, -1, -7
1503942742601,20, 3, 2, 6, 4, 5, -1, -9
1503942742616,1, -12, -6, -4, -1, -2, 7, -4
1503942742624,-4, -11, -3, -3, -2, -4, -3, 12
1503942742631,1, 2, 1, -1, -1, 2, 3, 6
1503942742646,37, -1, 1, 0, -1, -1, 4, 5
1503942742654,8, 2, 8, 4, 0, 0, -4, 8
1503942742668,-14, -5, -7, -2, -3, -1, -7, -8
1503942742678,-7, 5, -2, 0, 2, 0, 9, 12
1503942742684,-35, -2, -5, -7, -4, -3, -4, 1
1503942742698,3, -2, -3, -1, -1, 2, 7, 1
1503942742706,-1, 10, 3, 0, -1, 1, -4, -10
1503942742714,-5, 1, -2, 0, -1, -3, -4, -21
1503942742728,8, -6, -2, -1, -1, 0, 0, -23
1503942742736,8, 3, -2, -1, -2, -10, -17, 10
1503942742744,-20, -7, -6, -2, -3, -2, 3, -18
1503942742758,-22, -2, 3, -1, -2, 0, 6, 12
1503942742766,-13, -8, -8, -2, -1, 0, -1, 6
1503942742781,-12, 5, -4, -2, -1, -2, -6, -8
1503942742788,5, -3, -3, 1, 2, 0, 3, 4
1503942742803,8, -2, 1, 2, 1, 3, -3, -3
1503942742811,8, 4, -2, -1, -3, -1, -11, 1
1503942742818,-2, 0, 4, 1, 3, 0, -11, 16
1503942742826,9, -4, -4, -1, 1, 1, 5, -4
1503942742833,3, 0, -3, 0, 0, 1, 10, -5
1503942742849,-6, 6, -2, -2, -2, -3, -7, -5
1503942742856,-14, -7, -4, -4, -1, -1, 1, 19
1503942742864,11, 16, 8, 2, 1, 2, 5, 10
1503942742879,-9, -9, -5, 0, 0, 1, 1, 15
1503942742886,-16, -5, -6, -5, -4, -1, -5, -7
1503942742893,2, -1, -4, 0, -1, 1, -4, -9
1503942742909,-1, -7, -2, 2, 0, 0, 6, 9
1503942742916,-4, -8, -6, -3, -3, -2, 1, -7
1503942742924,-49, -7, -1, -5, 0, -3, -8, -2
1503942742940,-11, -2, 3, 0, 2, 1, -1, -7
1503942742946,14, -1, -4, 0, -3, 0, -2, -21
1503942742953,0, 6, 1, -3, -5, -5, 2, -15
1503942742968,4, 3, 0, 1, 1, -2, 0, 11
1503942742976,10, 4, -1, 2, -2, -1, -3, -2
1503942742984,17, 10, -1, 0, -1, 1, 5, 0
1503942742998,-1, -3, -3, 0, -2, -1, -4, 8
1503942743008,10, -5, -4, -3, 0, 0, 3, 1
1503942743014,-6, -3, 0, -2, -1, 0, -3, -12
1503942743029,0, -3, -1, 1, 2, -2, -9, -1
1503942743036,1, 1, 2, 2, 0, -4, -11, -12
1503942743044,-3, 0, 1, -1, 0, 0, 6, 23
1503942743058,-2, -2, 2, 3, 1, -2, -7, 1
1503942743066,-2, 1, -1, 1, -1, -2, -7, -5
1503942743076,5, -4, -7, -4, -3, -1, 6, -1
1503942743089,14, -4, -2, -2, -3, -2, 8, 14
1503942743096,-3, 7, 4, -1, -1, -1, -1, -4
1503942743104,2, 2, -2, -7, -3, 0, -3, -10
1503942743118,3, -1, -9, -2, -3, -1, 3, -2
1503942743126,9, 6, 1, 2, 0, 1, 8, -5
1503942743133,-9, -2, -1, -3, -1, 0, 3, -1
1503942743149,-4, -7, 1, 6, 8, 3, 3, -11
1503942743156,-7, -6, -1, -7, -5, 1, -5, 5
1503942743164,-9, -8, 3, 19, 4, 2, 3, -5
1503942743180,-10, 4, 4, 2, 1, -2, -9, -4
1503942743186,-5, 0, -11, -9, -4, -4, 1, -6
1503942743193,4, -8, -3, -2, -1, 0, 2, 6
1503942743209,-8, 1, 1, 17, 2, 0, 10, 6
1503942743216,4, 7, -5, -5, -2, 1, 4, 7
1503942743224,-10, -1, 8, -1, 1, 2, -4, -7
1503942743238,2, 0, -5, -11, -12, -3, -4, -6
1503942743247,0, 3, -3, 0, 8, 0, -8, 2
1503942743254,5, -9, 4, 4, 8, 3, 7, -1
1503942743268,10, -7, 4, 1, -5, -3, -8, -6
1503942743277,0, -4, -7, 2, 2, -1, 1, 5
1503942743284,-12, -4, -4, -14, -5, -2, -4, -4
1503942743298,-2, -1, -3, -3, 0, -2, -3, 0
1503942743309,-13, 1, -11, -7, -6, -3, -5, -4
1503942743313,-9, -7, -6, -5, -8, -3, 1, -7
1503942743328,5, -3, -3, -1, -2, 1, -4, 1
1503942743336,-10, 24, 7, 6, 3, 0, 4, 2
1503942743344,-3, -1, -6, -2, -4, -2, 0, 1
1503942743359,2, 4, 3, 16, 1, 0, 5, 3
1503942743367,3, 1, 0, -3, 3, 1, -1, 3
1503942743375,-4, -3, -2, -6, -3, -2, 0, 2
1503942743376,-3, -3, 4, 0, 2, 0, -5, 4
1503942743389,-6, 6, 0, -9, -1, 0, -8, 4
1503942743396,35, 2, -8, -1, -5, -4, 0, 1
1503942743404,-8, 10, -2, 1, -2, -1, 2, -10
1503942743419,-10, -9, -7, 2, 1, -1, -10, -7
1503942743426,9, 1, -4, -12, 1, -1, 4, 3
1503942743433,-6, 1, -1, -8, -3, -2, -5, -7
1503942743449,0, -6, 0, -1, -1, -2, 0, -1
1503942743456,-10, -4, -11, -7, -1, -3, -3, -4
1503942743464,11, -17, 1, 1, -2, -4, -2, 0
1503942743479,-8, -5, -1, 12, 1, -2, 2, -2
1503942743486,-16, -12, -11, -15, -4, 0, 0, -3
1503942743487,1, 13, 12, 6, 3, 0, -1, -3
1503942743493,-19, -4, 17, 4, 4, 1, 0, -13
1503942743510,-20, -9, -8, -4, -3, 2, 3, 3
1503942743516,12, 16, -3, -16, -6, -1, -2, -5
1503942743524,24, 7, -6, 1, -4, -2, -5, 9
1503942743538,4, 1, 5, 7, 0, 3, 1, 2
1503942743547,4, -6, 7, 16, 1, -1, -8, -7
1503942743554,-17, -32, -17, -6, -3, -6, -8, -6
1503942743568,-3, -14, -11, -4, -1, -2, 4, -2
1503942743577,11, -5, -5, -6, -1, 0, 8, 8
1503942743591,-8, 1, 8, -9, 3, 2, -3, -5
1503942743598,-4, 6, -11, -5, -5, 1, 1, 3
1503942743606,-18, 12, 4, -8, -1, -2, -2, -4
1503942743620,-8, 29, 20, 8, 2, 2, 8, 5
1503942743628,-6, -11, -8, -1, -2, -2, -3, -10
1503942743636,3, 4, 8, -7, 3, 2, -3, 3
1503942743652,5, 5, -4, -4, -4, 0, 10, 10
1503942743658,14, -2, 2, 9, 3, 4, -2, -2
1503942743666,-24, -11, 2, -11, -1, -4, -6, -19
1503942743667,4, 21, 14, 7, 4, 0, -3, 2
1503942743681,2, 7, 6, 2, 1, 0, 7, 27
1503942743688,-8, -17, -12, -2, -6, -4, -6, -9
1503942743696,-1, -7, -7, -6, 0, -1, 0, -3
1503942743713,-3, 13, 11, 18, -1, 1, -1, -5
1503942743719,28, -3, 3, 13, -1, -2, -2, 16
1503942743726,-5, -9, -12, -12, -2, 0, 8, -16
1503942743740,-26, 6, -11, -11, 0, -1, 1, -23
1503942743750,-2, 1, 1, 9, 2, -1, -7, -5
1503942743756,10, -11, -10, -6, 0, 0, -2, -4
1503942743771,0, -20, -9, -7, -5, -4, -7, -5
1503942743778,1, -10, -8, -5, -6, -1, -6, -3
1503942743779,-2, 5, 3, 0, 4, -2, 8, 5
1503942743788,7, 2, -7, -8, -5, -1, 1, 10
1503942743800,-1, -11, -10, -11, -9, -6, -10, -10
1503942743810,-2, 5, 2, 11, -1, 0, 6, 7
1503942743816,-17, 2, 8, 3, 0, 3, -6, -11
1503942743831,4, 24, 6, -9, 0, 0, 7, -4
1503942743838,6, 16, 8, 14, 2, -1, -3, 11
1503942743847,2, -10, 2, 0, 6, 3, -2, 2
1503942743860,-2, -8, -14, -11, -7, -1, 1, 10
1503942743869,-8, 13, -3, -5, -2, -5, 3, 3
1503942743878,0, -11, 3, 0, 3, 0, -4, -3
1503942743891,0, -6, -12, -15, -8, -5, -4, 3
1503942743898,1, -2, -1, 9, -4, -1, 1, 5
1503942743906,13, 4, -11, -3, -8, -1, 2, 18
1503942743920,4, -1, 2, -2, 1, -2, 2, -5
1503942743929,4, -5, 5, 6, 6, 2, 0, -4
1503942743936,-1, -3, -4, -4, -2, 0, -1, -3
1503942743951,-4, -8, -1, 0, -1, -1, 5, -14
1503942743958,-4, -3, -2, -1, -2, -3, 1, -12
1503942743966,3, -3, 9, 8, 3, 1, 3, 2
1503942743981,-5, 3, 0, -4, 0, -2, -5, 3
1503942743989,-6, 2, 1, -4, -1, -1, -7, 2
1503942743996,-2, 6, -1, -1, -3, -3, -2, -14
1503942744013,-4, -4, 3, 3, 5, 1, -6, -11
1503942744018,2, -1, -3, -2, -5, 0, 12, 4
1503942744019,-7, 0, -2, 2, 0, 0, -3, 0
1503942744026,-6, -7, -3, -1, 0, -2, -4, 15
1503942744040,-4, -8, -7, -7, -3, -3, -2, -6
1503942744051,-2, 1, -4, 1, 2, 1, -6, -11
1503942744063,-1, 3, 2, 4, 3, 1, 7, 0
1503942744071,-3, -4, 2, -1, -2, -1, 4, 1
1503942744085,-2, -4, -5, -5, -3, -1, -2, 4
1503942744087,-3, 8, -1, 0, 1, -1, -4, -9
1503942744100,3, -2, -2, -2, 0, 1, -2, 0
1503942744109,1, -1, -6, -3, -7, -1, 4, 4
1503942744116,-7, -2, -5, -1, 3, -1, 5, -4
1503942744131,1, -6, -7, -5, -3, -1, -5, 0
1503942744138,-1, -10, -2, -1, -1, 1, -5, 1
1503942744150,-4, -4, -7, 0, -1, 0, 6, 5
1503942744160,-3, 2, 12, 2, 2, 1, 4, 0
1503942744168,0, 2, -4, -5, -3, -2, -4, -9
1503942744176,4, -2, -5, -1, -3, -1, -3, 3
1503942744192,4, 5, 5, 2, 2, -2, -9, 5
1503942744198,-3, -1, -4, -1, 0, -3, -7, -7
1503942744206,0, -6, -5, -4, -3, -5, -1, 2
1503942744220,-1, 4, -6, 0, 0, -1, -2, 0
1503942744229,-1, 5, 8, 7, 5, 3, 2, -2
1503942744236,1, -9, -7, -4, -3, -2, 3, -4
1503942744251,-8, -1, -6, -5, -3, 1, -6, 7
1503942744259,-4, 0, -3, -7, -5, 1, 1, -6
1503942744266,3, -4, -2, -2, -2, 0, -9, -3
1503942744281,-8, -4, 1, 0, 0, 1, 2, 0
1503942744289,-3, 2, -1, 0, 0, -1, 4, -2
1503942744296,3, 2, 3, 1, 0, -2, -2, 2
1503942744312,-6, -5, 1, 1, 1, -2, 4, 0
1503942744318,12, 11, -1, 0, 2, -2, -6, 5
1503942744319,-5, 3, 0, 0, 1, 1, -1, -8
1503942744326,3, -9, -2, 0, -2, -1, -6, -8
1503942744340,4, 1, -7, -5, -4, -4, 2, 5
1503942744349,-4, -4, -8, -3, -2, 2, 6, -1
1503942744356,6, 2, 8, 3, 0, -1, -3, 2
1503942744371,2, 4, -3, -1, 0, -1, 1, 5
1503942744381,-4, 1, -4, -3, -3, -1, -1, 1
1503942744386,2, -3, -2, -2, -1, -3, -1, -6
1503942744387,2, 3, 1, -3, -3, 0, 0, 1
1503942744400,6, -11, 0, -2, -1, 1, -2, -4
1503942744408,1, 1, -2, 0, -1, 0, 5, -2
1503942744416,12, 6, -7, 0, -3, -2, -5, -28
1503942744431,-6, 2, 3, 2, 3, 1, 1, -4
1503942744438,-5, 12, 5, 1, 1, 0, 0, 15
1503942744449,-3, -2, -3, -4, -5, 0, 0, -2
1503942744460,-6, 0, -5, -2, -1, -2, -2, -3
1503942744468,-7, 1, -1, -1, -2, 0, -2, 4
1503942744476,-3, -2, 3, 2, 2, -1, -3, 3
1503942744491,8, 1, 1, 0, -1, -1, 1, 0
1503942744498,-1, -9, -5, -4, -1, 1, -2, 5
1503942744514,-1, 5, 3, -1, 1, -1, -2, 6
1503942744520,2, 17, 11, 6, 3, 1, 2, 1
1503942744528,16, 9, -1, 0, 2, 0, -3, -1
1503942744543,-8, 1, -3, -2, 0, -1, -2, 5
1503942744551,-6, -7, -9, -2, -1, -1, -1, -7
1503942744558,8, -5, 3, 3, 2, 2, 1, -1
1503942744575,3, -4, -3, -4, -4, -3, -5, -2
1503942744585,-7, -5, -7, -7, -4, -2, -2, -8
1503942744589,-1, -3, 0, 2, 3, 1, 2, 9
1503942744603,-6, -2, 0, 3, 1, 1, -7, 5
1503942744611,-15, -2, -4, -2, -2, 0, -1, -4
1503942744619,-4, -2, 0, 0, 1, -2, 2, 3
1503942744633,-3, -2, 1, -3, -9, -1, -3, 0
1503942744640,-6, -9, -6, -1, -1, -1, -3, -3
1503942744649,0, -1, -5, -4, -6, -3, -1, 3
1503942744663,4, 10, 6, 2, -2, 0, 1, -1
1503942744671,-8, 1, 3, 1, 4, -1, -3, -3
1503942744678,3, -4, -1, -2, -1, 0, 2, 4
1503942744693,3, 4, -1, 0, 2, 0, -2, -1
1503942744700,1, -2, -4, 1, -7, -3, 2, 2
1503942744708,-7, 0, -5, -3, 1, -2, -2, -7
1503942744723,-1, -1, 1, -2, 0, -3, -2, 5
1503942744731,8, 5, 3, 2, -4, -2, 2, 0
1503942744738,-3, 3, -1, -1, 13, 1, -1, -3
1503942744739,2, 0, -1, 3, -1, 0, -2, -6
1503942744760,-5, 3, 0, -1, 2, 1, 2, -1
1503942744761,-6, -3, -8, -6, -1, 0, -1, -6
1503942744768,2, -3, 2, 1, -2, 0, 6, 1
1503942744787,-1, 6, 0, -1, 2, 2, 1, -9
1503942744791,9, 1, 5, 6, 5, 0, -5, -1
1503942744798,-2, 1, -3, -2, -5, -1, -1, 1
1503942744813,-9, -11, -10, -4, 0, -1, -2, -9
1503942744820,6, -5, -12, -5, -5, -1, -8, -5
1503942744829,-1, -5, -6, -1, 0, -1, -3, -3
1503942744843,30, 0, -4, -5, -1, -2, -2, 5
1503942744852,-1, 3, 2, 2, 1, -1, -1, -5
1503942744865,-20, 1, 4, 2, 2, 2, 6, -16
1503942744873,18, 5, -5, -4, -8, -4, 3, 11
1503942744880,-6, -5, -3, 2, 3, -2, 3, 4
1503942744889,-12, 2, 3, 0, -1, -1, 2, -7
1503942744903,-6, -7, 0, 0, 1, 2, -5, 1
1503942744911,7, -5, 0, -1, -1, -1, -5, 1
1503942744919,-12, -1, -3, -1, -1, -2, 2, 8
1503942744933,-8, 0, 3, 1, 2, 0, -4, -3
1503942744940,-20, -8, -7, -2, -1, 0, 0, -3
1503942744952,-6, -3, -3, -3, -1, -2, -2, -3
1503942744963,7, 2, -1, 0, 1, -3, -1, 1
1503942744971,-7, -2, 3, 2, 2, 0, 3, 6
1503942744978,15, 5, 0, -1, -2, 0, 1, 12
1503942744993,3, -4, -3, -1, -2, 0, 2, 0
1503942745000,5, 7, 6, 1, 1, -3, -4, -4
1503942745009,-19, -8, -8, -6, -4, -2, -11, -1
1503942745023,-9, -7, -1, 0, -3, -2, -7, -5
1503942745031,1, -1, -4, 1, 0, 0, 2, -2
1503942745038,3, 8, -2, -5, -4, -1, 0, -1
1503942745054,2, 6, 1, -2, 1, 1, 1, 13
1503942745060,-7, 4, -1, -5, -5, 0, 2, -14
1503942745069,1, 3, 1, 3, 2, 0, 2, -9
1503942745085,5, -6, 0, 3, 1, 1, -2, 5
1503942745091,-8, -2, -1, -2, 1, -1, -7, -16
1503942745098,-8, -6, 1, 3, 3, 2, -1, -7
1503942745113,3, 1, 6, 1, -1, 0, -2, 0
1503942745120,-3, 0, 1, -2, -3, -1, 2, 0
1503942745128,-3, -7, -2, 0, 0, 0, -1, 1
1503942745142,-3, 0, -1, 1, -2, -3, -1, 4
1503942745151,9, 1, -3, -3, -3, 0, -1, -1
1503942745159,2, -3, -2, -2, 0, 0, -1, -4
1503942745173,-5, -3, -4, -1, 0, 5, 9, 5
1503942745180,1, 0, 0, 2, 6, 0, -4, 7
1503942745189,-4, -1, -1, -4, -19, -1, 5, 1
1503942745203,-6, 3, -3, 0, -3, -8, -3, 3
1503942745211,-2, 1, -6, -3, -8, -3, 2, 1
1503942745219,-10, 0, -2, 1, 1, -6, 7, 3
1503942745233,-12, 12, 7, 2, -6, -1, 7, 11
1503942745240,20, 1, -7, -2, -1, -2, -6, 1
1503942745248,-6, 7, 7, 2, 8, 1, -8, -4
1503942745263,13, 4, -9, -5, -1, 2, -6, 3
1503942745271,16, -5, -11, -9, -2, -4, -3, -6
1503942745278,-11, -13, -1, -3, 2, 3, -2, -12
1503942745294,-16, -4, -6, 1, 4, 1, 1, 6
1503942745300,8, 8, 0, -9, -7, -2, -5, 2
1503942745308,1, -1, 5, 5, 3, 1, -13, -4
1503942745323,-29, -7, -4, -2, -19, -5, -2, 5
1503942745331,26, -2, -10, -5, 2, 6, 6, -5
1503942745338,-9, -3, 4, 4, 1, -4, -12, -6
1503942745357,-2, 1, -3, -4, -6, -6, -2, 3
1503942745362,-2, 2, 3, 2, 16, 3, 6, 4
1503942745369,22, -1, -2, -3, -7, -3, 27, 14
1503942745383,-6, 7, 14, 9, 6, 2, 1, 9
1503942745394,-1, 2, 2, 6, 0, -2, -10, -24
1503942745399,13, -2, -1, -3, 1, 1, 5, 1
1503942745413,-4, 0, 4, 2, 7, 1, -6, 7
1503942745420,14, 7, 4, 1, 1, -2, -3, -6
1503942745436,-3, 7, -5, -7, -14, -8, -10, 0
1503942745444,-5, -18, -8, -2, -5, 0, -12, -4
1503942745453,1, -10, 0, 4, 4, 2, -2, 2
1503942745466,26, -2, -7, -5, -8, -4, 13, -3
1503942745473,-3, -4, 4, 2, 4, -3, -11, 5
1503942745483,8, -3, -4, 1, 4, 3, 2, -4
1503942745496,-4, -2, 2, 1, 7, 2, 14, 2
1503942745504,-8, -1, -2, -2, -1, 1, 0, 8
1503942745511,-8, -1, -7, -3, 2, -1, -3, -3
1503942745526,-13, 2, -4, 1, 0, 1, -8, 1
1503942745533,27, 3, 2, -3, -4, -1, 0, -14
1503942745541,7, 1, -10, -1, -4, 1, 9, 7
1503942745556,-8, -2, -1, -1, 0, 3, 7, 15
1503942745565,-29, 5, 5, 3, 3, 1, 2, -13
1503942745571,-13, -4, -9, -3, 0, -1, -7, -4
1503942745589,-6, -5, 0, 3, 2, -2, -11, 5
1503942745594,-5, -1, -5, -3, -6, -3, -1, -7
1503942745601,4, 5, 4, -6, -2, -2, 1, 0
1503942745616,-1, -1, 0, 4, -1, -3, -8, 8
1503942745625,4, 0, 2, -2, -5, -2, -7, 8
1503942745631,-4, 12, 5, -2, 4, -2, -3, -3
1503942745646,8, -1, 5, 1, 2, 1, 9, 5
1503942745654,-4, -1, -2, 0, 1, -1, -10, -16
1503942745664,-8, 4, -2, -3, -11, -3, -2, -41
1503942745676,-2, -4, 1, 0, -3, 0, 7, 19
1503942745684,1, -4, -2, 0, 0, -1, -1, 4
1503942745691,-6, -4, -2, -1, 5, 2, 0, -7
1503942745706,-6, -4, 2, 2, 2, -4, 3, 2
1503942745713,18, -6, 2, -1, -2, 2, 14, 18
1503942745722,7, -2, -1, -1, 2, 2, -14, 6
1503942745736,-6, -19, -8, -3, -4, -4, -12, -9
1503942745744,9, 14, 1, -3, -4, -2, 0, -1
1503942745751,-14, 4, -3, -1, -2, -5, -4, 8
1503942745766,3, -6, -6, -2, -1, -1, -1, -6
1503942745773,-1, -1, 1, 2, 3, 2, 3, -11
1503942745782,-7, -1, 4, 2, -7, -5, 13, 17
1503942745796,-6, 7, -2, -1, -2, -2, -5, -31
1503942745804,12, 9, 2, 1, 0, 1, 3, -10
1503942745811,5, -16, -9, -4, -2, -4, -4, -7
1503942745827,-13, -5, -4, -2, 3, -1, -4, -5
1503942745833,-2, 7, -1, 0, 2, 1, -6, -9
1503942745841,-44, -8, -6, -5, -3, -3, -15, 0
1503942745856,15, 15, 18, 7, 0, 2, 2, 15
1503942745865,-8, -14, -1, 7, 4, 5, 0, -3
1503942745871,-11, -8, -13, -3, 1, 2, 6, -11
1503942745891,-3, -9, -2, -2, 1, 2, 2, 18
1503942745894,-37, -9, -1, 2, 1, 0, 1, 4
1503942745902,6, -1, -9, -4, -2, 0, 4, -3
1503942745916,-10, 5, 5, -2, -1, 0, -5, -4
1503942745925,13, 6, 2, -1, -1, -3, 6, -1
1503942745931,-5, 2, 0, 2, 3, -1, -6, -11
1503942745946,17, 1, 3, 2, 0, 3, 0, -10
1503942745955,-2, -2, -5, -3, -3, 0, 1, 2
1503942745969,20, 11, -4, -2, 0, -1, 5, 0
1503942745976,11, 13, 15, 2, -1, 0, 5, 6
1503942745984,2, 5, -1, -3, 0, -2, -11, 1
1503942745991,7, -6, -4, -3, -2, -3, 1, -10
1503942746006,-3, 0, 0, -1, 0, -1, 8, 0
1503942746013,13, 1, -8, -5, -2, 0, -18, -2
1503942746029,1, 4, -3, 1, -7, -1, -10, 1
1503942746036,2, 5, -3, -4, -9, -1, 4, 6
1503942746044,-7, -3, -5, -3, 2, 2, 7, 3
1503942746051,-1, -2, -6, -1, -5, -3, -2, 5
1503942746066,-17, 5, -5, -4, -1, -1, -5, 1
1503942746073,-4, -10, -7, -1, 4, 0, 5, 16
1503942746091,13, -1, 0, 1, -1, -1, -3, -7
1503942746096,3, 0, 2, 0, 2, 3, 15, 18
1503942746104,-15, 8, 7, 1, -2, -2, 7, -8
1503942746111,6, 3, 2, 3, 5, -4, 0, -17
1503942746126,6, -10, -5, 1, -15, -3, -2, 3
1503942746133,-18, -3, 1, 1, 2, 0, -5, -12
1503942746142,-7, 1, 2, 1, 5, 0, -10, -8
1503942746157,4, 9, -4, -5, -5, 4, -5, -2
1503942746164,1, -4, -2, -7, 2, 1, 2, -4
1503942746171,14, -4, -2, -1, 4, 0, 3, 4
1503942746187,3, 2, -8, 0, -2, 1, 1, 14
1503942746192,-10, 16, 6, -3, -2, -3, -1, -1
1503942746195,-29, -8, 0, 2, -3, -4, -5, 5
1503942746202,11, -8, 3, -1, 2, -3, -5, -6
1503942746225,-16, -11, -12, -4, 2, 1, -19, -8
1503942746231,-3, 5, 2, -1, -1, -3, 3, 1
1503942746232,-5, -9, -4, -4, -8, -3, -12, -7
1503942746247,7, 2, -2, 1, -6, -2, 1, 7
1503942746253,5, 4, -2, -2, -1, -1, -2, -4
1503942746262,12, -3, 3, 1, 1, 1, 7, 15
1503942746276,1, 8, -5, -2, 0, 1, 3, -23
1503942746284,-16, -8, -1, 1, 1, 3, 0, -5
1503942746292,6, 5, 2, 0, -1, -2, -2, -6
1503942746307,-12, 0, 1, -1, -2, -2, -12, 3
1503942746313,1, -10, -4, -5, 1, -3, 3, 1
1503942746323,17, -6, -2, -2, 13, -3, -1, 4
1503942746336,-13, -8, -3, -1, 3, 0, -4, -1
1503942746344,14, 2, 6, 5, -6, -1, 5, 0
1503942746351,11, -21, -3, -4, -3, -3, 13, -5
1503942746366,-7, -2, -9, -4, -1, -1, 2, -3
1503942746373,5, -3, -4, -1, -5, -1, -5, -2
1503942746390,-1, -13, -12, -6, -4, 0, 2, -9
1503942746396,2, 1, -2, 4, 3, -1, -5, 0
1503942746404,-22, -3, -3, 0, -1, -1, -5, -1
1503942746418,-12, 3, 0, 1, 0, 0, -9, 5
1503942746426,-32, -16, -9, -1, 1, -2, -4, -10
1503942746433,3, 10, 8, 2, 1, -1, -3, 0
1503942746448,10, 2, -1, 0, -3, -2, 15, 2
1503942746458,-12, -2, -3, -2, -1, 1, -10, 2
1503942746464,6, 11, 19, 6, 0, 2, 1, 7
1503942746479,6, 2, -1, -2, -1, 1, 4, 10
1503942746486,6, 0, -8, -2, -3, -4, 0, -3
1503942746494,13, 5, 3, 3, 2, 1, -2, 9
1503942746508,20, 21, 5, 2, 1, 2, -2, 6
1503942746516,4, 6, -2, 3, -3, -1, 12, -3
1503942746526,-7, -8, -8, -1, 1, 0, -2, 0
1503942746539,-10, -4, -1, -1, -1, -1, -5, -5
1503942746546,-2, -5, -10, -7, -6, -3, -8, 7
1503942746553,-5, 14, 11, 3, 0, -1, -6, -7
1503942746568,5, 11, 4, 3, -2, 2, 1, 1
1503942746576,-1, -7, -6, 0, 0, -4, -2, -8
1503942746584,-39, -9, -3, -1, -1, 1, 3, -3
1503942746598,3, 4, 1, 0, 0, -2, -2, -1
1503942746599,-15, -12, -11, -5, -3, -2, 2, -2
1503942746613,-25, -10, 0, 0, 1, 0, -2, -10
1503942746614,23, 0, -7, -6, -4, 1, -1, 16
1503942746629,-14, 1, -4, -1, -2, 1, 5, -12
1503942746636,-22, -5, -5, -6, -2, -4, -4, -5
1503942746644,36, 7, 1, -1, -3, -6, -3, -2
1503942746659,-2, 0, 3, 1, 2, 1, 5, -12
1503942746667,-16, -3, 0, 0, 1, -2, -2, 8
1503942746673,-8, -10, -2, 1, -3, 1, 0, -3
1503942746688,7, 0, 7, 4, 3, 0, -2, 8
1503942746696,-18, 4, -3, 0, 1, 1, -7, -1
1503942746704,6, -12, -5, -2, 0, 1, 9, 0
1503942746718,16, 9, 5, 2, 2, 2, 16, 4
1503942746726,-6, -10, -8, -3, -3, -5, -12, -5
1503942746734,-11, -12, -2, 1, -1, 2, 4, 21
1503942746748,8, 3, -7, 0, 1, -2, -2, -7
1503942746749,3, -2, 0, -2, 1, 2, 13, 2
1503942746756,-3, 10, 0, -3, -3, 2, -9, -10
1503942746764,7, 3, -2, 1, -4, 2, -6, -17
1503942746778,8, 2, 2, -1, -3, -4, -10, -8
1503942746786,-11, 1, -2, -5, -4, -4, 8, -3
1503942746793,9, -4, 0, 3, 13, 5, -1, 1
1503942746808,31, 14, 4, 1, -4, -2, 0, 11
1503942746816,-1, 1, 1, 1, -5, -3, 2, 18
1503942746827,20, 0, -3, -1, 2, 0, -9, 14
1503942746845,-5, -2, -6, -4, -4, -5, -5, -11
1503942746847,3, -1, -1, 0, 0, 0, -11, -10
1503942746853,-1, -6, -1, -3, -4, -2, 3, 11
1503942746869,8, -11, -7, -4, -3, 0, 0, -16
1503942746876,-18, -15, 1, 0, -2, 1, -6, -1
1503942746892,-4, 9, -1, -2, -3, -2, -2, -6
1503942746899,-10, 4, -1, -4, -4, -2, 0, -17
1503942746906,-9, 4, -3, -3, 1, 1, 0, -2
1503942746913,1, 16, 5, 5, 3, 4, -4, -5
1503942746928,-10, 11, 2, 0, 0, -2, -13, 4
1503942746936,28, -3, -3, -3, -1, -5, -12, -7
1503942746944,-10, -7, -2, 0, 1, 3, 9, -12
1503942746960,-16, -12, -7, -2, -3, -3, 3, -2
1503942746966,-5, 7, 4, -1, 0, -4, 3, -4
1503942746973,18, 9, -2, -1, -2, -3, -4, -2
1503942746988,-3, -2, -1, -2, -3, -8, 7, -5
1503942746989,-4, -6, -1, 2, 2, 0, -5, -2
1503942746996,-4, 17, 7, 2, 0, 0, 1, -5
1503942747004,-16, -6, -6, -3, -3, 0, -1, 5
1503942747018,-17, -6, -3, 1, 0, -2, 4, -1
1503942747032,-13, 3, -4, -2, -1, -2, -3, -4
1503942747033,18, -14, -2, -3, -1, 1, 2, 20
1503942747048,6, -8, -7, -3, -3, -1, -6, -20
1503942747057,-7, 11, 2, 2, -1, 1, 6, 0
1503942747064,-1, -1, 1, 0, 1, -2, -6, 6
1503942747078,-20, -13, -10, -5, -3, -1, -1, -18
1503942747086,-5, -3, -7, 0, -2, -3, 0, 6
1503942747094,-3, 2, -1, -1, 0, 0, 1, 5
1503942747109,32, -2, 5, -3, -2, -2, 8, 1
1503942747116,-7, 0, -1, -2, 0, 0, -2, -5
1503942747124,-10, -4, -1, -1, 1, 2, 13, -6
1503942747138,-6, 1, -2, -2, -2, -2, 1, -6
1503942747146,3, -3, -4, -1, 0, 0, -1, 0
1503942747153,13, -5, -1, 2, 0, -1, 0, 11
1503942747170,-10, 5, 1, 1, -2, -1, -4, 14
1503942747176,-20, -4, -6, 1, 0, 0, -1, -3
1503942747184,-6, 1, -1, -2, 0, -2, -7, -8
1503942747200,-2, 3, -1, -4, -2, -1, 13, 11
1503942747206,-5, -13, 5, 1, -1, 1, 6, 4
1503942747207,-14, 4, -2, 2, -1, -2, -2, 1
1503942747213,17, 6, 0, -2, -1, -1, -4, 2
1503942747230,-1, 6, 14, 3, 1, 1, -3, -5
1503942747237,-3, 2, -4, 0, 0, 0, -5, -14
1503942747244,26, 5, 2, -2, -2, -1, 0, -2
1503942747258,-2, 3, 0, 0, -3, -2, -3, -4
1503942747268,-4, -7, -4, 0, 0, 5, -4, 5
1503942747273,11, 1, 6, 3, 3, -3, -34, -6
1503942747289,-12, -4, -3, -3, -1, 0, 2, 10
1503942747297,-8, -4, -7, -5, -3, 2, 5, 13
1503942747311,-1, 1, 0, 5, 2, 1, 2, -4
1503942747318,5, 8, 7, 1, -2, -2, 5, -7
1503942747330,-16, -3, 0, -3, -2, -2, 7, 13
1503942747341,-3, 1, 1, 2, 3, -1, 0, -4
1503942747349,2, 0, -5, 0, -4, -3, -6, -19
1503942747356,-18, -1, -4, -3, -2, -1, -2, -2
1503942747372,1, 6, 2, 2, 1, 0, -2, 3
1503942747378,-1, -3, -3, 0, 2, 0, -1, -10
1503942747386,2, -2, 1, -1, -2, -1, 0, -3
1503942747401,6, -6, -5, 0, -3, 3, 5, -1
1503942747409,-17, -12, -3, -3, -1, -2, 1, 0
1503942747416,3, -4, 7, 7, 4, 1, 5, 0
1503942747431,-1, 7, -14, -8, -6, 1, 13, 2
1503942747438,5, 8, 6, 9, 3, 0, 4, -1
1503942747446,4, 2, 5, -1, 4, 1, 1, 0
1503942747462,5, -10, -5, -5, -4, -2, -7, -2
1503942747469,14, -11, -5, 2, -1, -4, -8, 3
1503942747476,-4, -4, -11, -4, -2, -2, -1, -1
1503942747491,-6, -17, -6, -8, -2, 0, 0, -1
1503942747498,-6, 2, -1, -7, -4, -4, -4, 0
1503942747506,2, 21, 12, 7, 6, 3, 0, -2
1503942747521,-4, 1, 2, -9, -6, -3, -1, -2
1503942747531,5, -4, -3, -4, 2, -1, -1, 1
1503942747539,-3, -1, -5, -2, -2, -2, -4, 1
1503942747551,-4, 12, 2, 4, 2, -2, 1, -5
1503942747558,0, -2, -2, -1, -1, 2, 6, 4
1503942747567,-13, -6, 6, 5, 0, -3, -13, -2
1503942747581,-12, 3, -2, 0, -1, 1, -1, -7
1503942747590,-9, 36, 10, 1, 2, 3, -2, -9
1503942747604,-6, -13, -5, 1, 2, -1, -1, -4
1503942747611,1, -25, -12, -8, -4, -4, -7, 1
1503942747618,-3, 6, -2, -3, 0, -1, -3, -1
1503942747626,-15, 4, -3, 3, -2, -2, 13, 0
1503942747641,-1, 9, 3, -9, -2, 0, 3, 2
1503942747649,-31, -10, -3, 1, -2, 0, 1, 7
1503942747656,17, -10, -10, -3, -5, -1, -4, -5
1503942747673,6, 13, 2, -7, 2, -4, -5, -15
1503942747678,10, -4, 7, 4, 3, 1, -2, 4
1503942747686,6, -7, -15, -16, -8, -3, -3, 2
1503942747701,-18, 0, 10, 12, 4, 0, 2, 4
1503942747709,-3, -17, -4, -6, -7, -2, -3, -4
1503942747716,-3, -2, 2, 18, 1, -3, -3, 2
1503942747737,20, 8, -1, 3, 0, 0, 6, 8
1503942747739,2, 0, -5, 4, -7, -4, 2, 6
1503942747746,1, -5, -8, 7, -1, 1, -1, 2
1503942747761,26, 9, 1, -7, 2, 3, -1, -4
1503942747769,14, 24, 0, 5, 1, 0, -6, 3
1503942747776,-16, -9, -10, -15, -8, -4, -16, -3
1503942747792,0, -9, -4, -6, 0, -2, -4, 4
1503942747802,-6, -15, -5, -4, -4, -4, 1, -8
1503942747807,2, -7, -3, -1, 1, -1, -5, -2
1503942747821,-16, -42, -26, -2, -6, -4, -1, -8
1503942747832,22, -8, -4, 1, -3, -3, -4, -7
1503942747836,-7, 6, 7, 4, 6, 3, 8, -9
1503942747851,0, -2, 12, -3, 6, 4, 6, 20
1503942747858,12, 20, -3, -14, -1, -1, 2, 12
1503942747866,3, 3, -6, -12, -4, -2, 5, 16
1503942747881,9, 12, 5, 7, 2, -1, 7, 17
1503942747897,27, -4, -9, -9, -4, -2, -2, 6
1503942747898,-7, 5, 4, 13, -1, 2, 4, -6
1503942747911,-3, -9, -6, 8, 3, 2, 5, -12
1503942747918,33, 25, 20, 8, 6, 7, 0, 3
1503942747926,-6, 3, 11, 12, -2, -1, -1, -1
1503942747941,4, -8, 3, -9, 2, -5, -14, -11
1503942747949,10, 13, -5, -3, 2, -1, 0, 0
1503942747956,30, 10, -1, -8, -6, -5, -13, 2
1503942747971,-6, 10, 1, -7, 1, 0, 0, 3
1503942747978,-39, 10, -5, -12, -4, -3, -1, -8
1503942747994,29, -4, -5, 3, -4, -2, -5, -9
1503942748001,-10, -7, -2, -2, -4, 1, 9, 3
1503942748009,-30, -20, -1, 10, 1, 2, 3, 8
1503942748016,3, 1, 3, 7, 1, 1, 15, 4
1503942748033,9, -12, -4, -3, -1, 1, 5, 12
1503942748034,-20, 4, -2, -7, -6, -2, -10, -11
1503942748038,-9, 6, 6, 6, 2, 1, -1, -12
1503942748046,23, 23, 21, 0, 9, 5, 3, 17
1503942748061,-14, -11, -16, -10, -7, -4, -4, 2
1503942748069,-16, -22, -16, -13, -4, -5, -5, 2
1503942748076,-8, -9, -3, 1, 4, 2, 6, -2
1503942748099,-15, -12, 0, 8, -3, -4, -5, -21
1503942748100,-1, 2, -8, -8, -5, -3, -1, 26
1503942748107,6, 1, -2, 4, 1, 0, -1, -17
1503942748127,0, -1, -5, -1, -3, -1, -2, -9
1503942748129,15, -12, 0, 3, -2, -3, 5, 7
1503942748137,-15, 4, 5, 3, 0, -2, 1, 3
1503942748151,-6, 27, -3, -8, 1, 2, -2, -5
1503942748158,17, 7, -4, 0, 2, 3, -4, -7
1503942748170,-3, -6, -5, -4, -5, -2, 9, 5
1503942748181,-5, -2, 0, -3, 1, -1, -12, -13
1503942748189,-1, -16, -8, -15, -7, -5, 11, -10
1503942748196,4, -18, 1, -3, -1, -1, 1, 4
1503942748211,-1, -4, 8, 7, 7, 2, -6, -2
1503942748218,-14, -12, 2, 8, 4, 0, -1, -5
1503942748235,-15, 16, 3, 1, -2, -3, -10, -1
1503942748241,-1, -8, -4, -2, -1, 1, -3, -8
1503942748242,-2, -2, 2, 1, -4, -2, -10, 1
1503942748249,1, 1, -3, 1, -3, -2, -8, -2
1503942748262,4, 5, -8, -5, -6, -6, 0, 4
1503942748271,1, 0, 3, 7, 5, 1, 1, 9
1503942748278,-11, -2, 1, 2, 2, 2, -2, -7
1503942748293,1, -6, -3, 2, -5, -4, -4, -1
1503942748308,4, -3, -8, -7, -3, -1, 3, 0
1503942748310,1, -2, -1, -1, -2, -3, -3, -6
1503942748322,4, 1, -4, -3, -3, -1, 1, 3
1503942748323,2, 0, 5, 3, 1, 2, 0, 2
1503942748331,1, 2, -1, -1, -2, 0, 1, 7
1503942748339,3, 1, -2, 0, -1, 2, 0, 1
1503942748353,2, 1, -3, -1, 0, 0, 3, -4
1503942748361,1, 1, -4, -2, 1, -1, -4, -1
1503942748369,4, 1, 2, 2, 2, -1, -2, 0
1503942748383,2, -3, -4, -4, -4, -3, -2, 1
1503942748391,-28, -9, -6, -17, -14, -3, -10, -2
1503942748400,-11, -1, -2, 3, 1, 1, 4, 1
1503942748413,8, -1, 3, 8, 34, 2, 1, -4
1503942748421,-1, 1, -2, -5, 1, 0, 1, -2
1503942748430,-1, -1, 0, -5, -8, -4, 0, 8
1503942748443,3, 4, 0, -8, -6, -2, -4, -2
1503942748451,4, -2, -4, -20, -66, -20, -14, -2
1503942748458,-1, -2, -5, 5, -13, -7, -4, 1
1503942748474,-4, -5, -5, -12, 6, 6, -2, -1
1503942748475,15, -2, -3, 3, 35, -2, 6, 2
1503942748481,-8, 2, 8, 14, 4, 12, 3, -5
1503942748489,-7, 2, -2, 11, 3, 2, 3, -6
1503942748503,-1, -7, -5, 4, 16, 4, 6, 0
1503942748511,-3, -4, 2, 9, -22, -4, 4, 3
1503942748518,-4, 0, -1, -9, -31, -27, -5, -10
1503942748535,-6, 3, -1, 7, 23, 1, 0, 2
1503942748541,7, 7, -3, -10, -55, -33, 2, 2
1503942748549,20, -2, -5, 8, -5, 11, -3, 0
1503942748562,4, 4, -14, -5, -29, 3, -5, 0
1503942748571,-2, 7, -5, -6, -6, 0, -3, -1
1503942748578,4, -7, 1, -12, 26, 13, -3, 6
1503942748593,-9, -15, -3, -1, 47, 21, 10, 6
1503942748602,-3, -2, 7, 13, 37, 30, -1, 4
1503942748609,-1, 4, 4, -13, -10, -2, -4, -3
1503942748622,-1, 5, 2, 23, 81, 14, 3, 4
1503942748623,4, -1, -4, 6, -14, -15, -5, 1
1503942748631,-8, -11, -8, -8, 1, 9, 4, -7
1503942748638,-9, 8, 2, -17, -37, -12, -7, 0
1503942748639,-21, -15, 3, -3, -44, -29, 6, 2
1503942748653,-5, -3, -2, 9, 57, 1, -1, -6
1503942748661,-5, 3, 14, -2, 18, 9, 4, -3
1503942748670,-6, 7, 6, -6, -37, 6, -4, 0
1503942748683,7, 19, -4, 8, 42, 10, -2, -1
1503942748691,-9, -2, -3, -1, -41, -11, -6, -4
1503942748698,-5, -16, -18, -16, -7, -6, -7, -10
1503942748713,4, 4, -1, -2, -53, 7, 4, 2
1503942748721,4, -1, 1, 8, 15, 14, 0, -2
1503942748729,3, 26, 15, -3, -17, -22, -2, 0
1503942748753,3, -16, -14, -2, 30, -1, 1, 1
1503942748758,-1, -8, -9, -8, -4, -7, -2, -3
1503942748773,-14, -3, -1, 10, 25, 30, -11, -3
1503942748781,12, -4, 1, -7, -23, 4, -1, -2
1503942748789,4, -3, -2, 3, 50, 21, 1, -1
1503942748803,-11, 14, 10, 4, -4, 1, -12, -1
1503942748812,22, 22, 7, 4, 24, -11, -3, -1
1503942748818,0, 3, -1, -7, 33, 6, 10, -1
1503942748833,-5, -1, 5, 10, -16, -9, -1, -1
1503942748841,-4, -2, -1, -8, 8, 3, 6, 3
1503942748850,-4, -5, -13, -13, -18, -6, -5, -4
1503942748862,-6, -4, 18, 14, 25, 2, 2, -8
1503942748863,0, 3, -7, -7, -59, -12, -4, 6
1503942748872,-5, 7, -13, 0, -18, -20, 6, 7
1503942748879,6, 4, -7, 8, 3, 2, 2, -1
1503942748893,-2, -4, -2, 5, 7, -9, 3, 1
1503942748903,5, 0, 4, 11, 17, -1, 4, 2
1503942748910,-5, -2, -4, -9, -9, -4, 11, 0
1503942748922,-4, -7, 3, -3, 0, 7, -9, -2
1503942748923,5, 12, 5, 4, 3, -4, -10, 0
1503942748931,-5, -7, 7, -5, -1, 36, 10, 3
1503942748938,-9, -3, -1, -8, 13, -13, -3, -5
1503942748953,0, -17, -3, 1, -17, -8, -12, -9
1503942748961,-9, -4, -2, -2, 6, -3, 11, -3
1503942748970,-1, -5, 8, 4, -5, -6, -5, 1
1503942748982,-4, -6, 2, 2, -9, -4, -6, 4
1503942748991,4, 11, -8, -8, -35, -14, 5, -11
1503942748998,-9, 7, -10, -9, -15, -8, -5, -3
1503942749013,-6, 4, 3, 0, 1, -4, -6, -5
1503942749020,4, -4, 5, 8, -20, -6, -13, -4
1503942749029,1, -7, 3, 4, -11, -8, -4, -1
1503942749043,-5, -12, -5, -12, -5, 1, 2, -3
1503942749051,3, -11, 5, -8, 14, -2, 1, 2
1503942749058,-1, 3, -2, -3, -15, 10, 0, 3
1503942749073,12, 2, -3, -5, -2, 0, -8, -10
1503942749081,-4, -2, -3, -8, -11, 3, -9, 1
1503942749089,-4, 3, -6, -8, -21, -10, -7, 1
1503942749105,5, -7, -7, -4, -9, -24, -2, -11
1503942749111,-8, -10, -6, -2, -28, 1, 5, 4
1503942749118,-2, -11, 1, 2, 4, 2, 6, 6
1503942749133,-3, 4, -1, 2, -20, -8, -12, 4
1503942749148,-7, 12, 2, -12, 19, 4, 1, -14
1503942749150,-5, -6, -10, 0, 7, -7, -4, -18
1503942749162,-2, 10, 1, -7, 8, 15, 5, -3
1503942749172,-1, 2, 4, -5, 39, -8, 2, 5
1503942749185,2, -5, -9, -4, -8, -16, -4, -7
1503942749193,-3, -2, 1, -7, -5, 5, -2, 1
1503942749201,-7, -3, -4, 7, 10, 6, 1, 8
1503942749216,6, 5, -2, 0, 4, 2, -7, -9
1503942749225,5, -2, 37, 20, 10, 6, 0, 23
1503942749231,19, 1, 3, 2, 8, -1, 6, 21
1503942749247,7, -10, -13, -6, -10, -3, -4, -2
1503942749253,-2, 0, 1, 5, 12, 6, 3, 2
1503942749261,3, 11, -11, -2, -5, -4, -1, -1
1503942749276,-4, -22, -8, 1, 5, 4, -2, -10
1503942749283,-2, 3, -8, -1, 7, 0, -2, -9
1503942749291,-5, 10, 1, 5, 2, 12, 12, 4
1503942749305,-1, -9, -3, 1, -14, 3, 9, -5
1503942749314,-10, -6, 1, -1, 3, 0, 1, 1
1503942749321,-3, 2, -6, -6, -2, 3, 1, 1
1503942749338,1, 12, 0, 2, 10, 7, -1, 2
1503942749343,-3, -9, -8, 1, 9, -3, 1, -8
1503942749344,-5, -6, 1, -4, 15, -4, 1, 3
1503942749351,-8, -8, -7, 2, 5, -6, -1, 0
1503942749365,0, -10, -10, -2, -28, -5, -10, -17
1503942749374,10, 4, -4, -8, -18, -2, -4, -7
1503942749381,-12, -4, 8, 7, 7, -2, -4, -3
1503942749396,-2, -19, -4, -3, -15, -5, -1, -2
1503942749402,0, 5, -3, 1, 4, 1, -10, 0
1503942749411,-5, 1, 8, 2, 7, 0, -1, 4
1503942749425,19, -18, -6, 1, 9, 0, -1, -17
1503942749433,-7, 25, 1, -2, 0, -6, -3, -12
1503942749441,10, 11, -5, -7, -48, -3, 0, 6
1503942749455,2, -9, -3, -4, -11, -9, 4, 9
1503942749462,-7, 0, 5, 2, 6, 1, 3, 5
1503942749474,-1, 18, 6, 1, -1, -2, -10, 8
1503942749485,2, 8, -6, -3, 14, 2, -1, -5
1503942749494,-18, -13, 4, 4, 6, 0, -3, -11
1503942749502,-4, -6, 2, 3, 9, 0, -1, 10
1503942749516,-12, 13, 7, 4, -4, 4, 3, 2
1503942749530,6, 3, -3, -3, 3, -4, -11, 3
1503942749532,11, -1, -4, -7, -2, -1, -4, -1
1503942749549,2, 4, 2, 1, 10, 2, 6, -3
1503942749553,4, 1, 1, -3, -2, -1, -1, -7
1503942749561,-13, -4, -4, -8, -35, -21, -1, -3
1503942749576,-2, -6, -10, -8, -4, 3, 6, 0
1503942749583,10, 19, 4, 3, 10, 0, -4, 1
1503942749591,18, 15, 4, 2, 2, 0, -9, 2
1503942749607,0, -7, -5, -1, 3, 3, 12, 3
1503942749613,-7, -5, 1, 5, 8, 2, 3, 0
1503942749621,-9, -9, -4, 4, 9, 4, 4, -1
1503942749635,11, 8, -4, -2, -16, -5, 0, -2
1503942749636,14, -9, -7, -1, 2, -3, 0, 7
1503942749643,-9, -7, -2, -3, 0, -1, -1, -4
1503942749651,2, 1, -3, 3, 1, 0, -1, 7
1503942749665,10, 5, -2, 0, 5, 5, -5, -21
1503942749674,16, 3, 2, 3, 21, 2, 1, -2
1503942749682,0, 0, 5, 1, -7, 0, -4, -2
1503942749695,12, 4, -1, 2, 10, -2, 0, 4
1503942749696,-7, 3, -1, -1, -7, 0, 3, -8
1503942749703,-20, -5, -2, 1, 12, 6, 4, 2
1503942749711,-16, -6, -3, -4, -2, -1, -7, -28
1503942749725,2, -6, -2, -1, -1, -1, 2, 8
1503942749733,-9, -12, 0, 1, 2, -2, 4, 25
1503942749741,-4, 22, 13, 2, 1, -4, 0, -12
1503942749756,-8, -2, -3, -4, -5, -3, -4, 4
1503942749763,3, -2, -2, 1, 3, 0, 1, 32
1503942749771,-8, 3, -4, -3, -7, 0, 7, -6
1503942749785,2, -1, -5, 0, 3, 3, 0, 1
1503942749793,-9, -4, 0, 2, -3, 0, 0, 2
1503942749800,-5, -9, -6, -3, -1, -5, -3, -1
1503942749817,-13, 2, -4, -2, -4, 0, 4, -2
1503942749823,3, 1, 7, 4, 2, 3, 0, 4
1503942749831,19, -1, 2, 1, -1, -5, -7, -2
1503942749845,4, -4, -9, -4, -2, 0, -4, -11
1503942749853,18, 1, -8, -3, -5, -2, -6, -7
1503942749860,11, 2, 6, 1, 1, 2, 0, -12
1503942749876,-10, -12, -6, -4, -2, -8, 0, -8
1503942749884,-17, 3, 0, -2, 0, -3, -17, -2
1503942749891,10, -1, -1, 2, 3, -2, -3, -25
1503942749905,-20, -5, -7, -2, 1, -1, 2, -16
1503942749914,-9, 11, 4, 3, 0, 1, 4, 7
1503942749920,-19, 1, 2, 1, -2, 1, -1, 7
1503942749936,-35, -10, -5, -6, 2, 0, 2, 8
1503942749943,-15, 0, 1, -2, -4, -2, 5, 30
1503942749951,8, 6, 0, -2, -4, -2, 0, 6
1503942749965,12, 2, -5, -6, -5, -5, -5, -30
1503942749976,12, -8, 0, 1, -2, -2, -8, -8
1503942749981,17, 1, 1, -1, 0, 1, 8, 18
1503942749995,-2, -4, -11, -2, -2, -5, -4, -8
1503942749996,-6, 1, -5, -6, -2, -1, -4, 6
1503942750002,-31, -12, -3, 3, 1, 2, 10, 8
1503942750011,-21, -17, -2, 1, 3, 2, 12, 13
1503942750029,5, 8, 0, -1, 0, 0, 1, 4
1503942750033,5, 2, -1, 0, -5, -2, -4, -6
1503942750042,-3, 0, 3, 1, 3, 0, 5, -17
1503942750055,-14, -2, 3, -1, 18, 0, -4, -9
1503942750062,8, 0, 1, 4, -16, -3, -9, 3
1503942750071,1, 7, 1, 1, -5, 2, -5, -2
1503942750087,1, -9, -11, -3, 6, -4, -3, -11
1503942750093,12, -5, -5, 1, -4, -3, -15, 1
1503942750112,-9, -9, -9, -8, -9, -2, -3, -1
1503942750116,11, 6, -4, -3, -3, -1, 6, 26
1503942750122,8, -1, 16, 6, 5, 3, 0, 0
1503942750138,2, -4, 3, 3, -1, 1, -1, -5
1503942750146,3, 10, -6, -4, 2, -1, 1, 0
1503942750153,2, 3, 9, 7, 11, 3, 4, -7
1503942750168,3, 0, -5, -2, -3, 0, -3, 5
1503942750176,-2, 0, -2, -3, 5, -6, 2, 0
1503942750183,-14, 2, -2, -3, 1, -4, 9, 1
1503942750198,-3, -2, 1, -2, -9, -4, -4, -4
1503942750205,-47, -9, -4, 0, 0, 0, -2, -1
1503942750214,4, 12, -3, -5, -7, 0, -3, -2
1503942750228,14, 5, 0, 0, -2, 0, -1, -7
1503942750236,5, 7, 0, 3, 3, -1, -18, -11
1503942750246,5, 0, -2, -1, -2, -3, -6, -11
1503942750258,39, 5, -6, -4, -7, 3, 9, 3
1503942750265,15, 4, 15, 1, 1, -1, 2, 0
1503942750273,-32, 0, 3, 6, 5, 4, 3, -16
1503942750288,17, 0, -7, -1, 0, 2, 2, 0
1503942750302,-1, -25, -8, -5, -6, -3, 1, 9
1503942750303,-11, -10, -6, -2, -3, -1, 11, 0
1503942750319,5, 11, 1, 3, 0, -1, -6, 1
1503942750325,-1, 0, 1, 3, 1, -1, -6, -4
1503942750333,-18, -7, 2, -2, 1, 1, 3, 5
1503942750350,38, 3, -2, 3, 4, 1, -9, 30
1503942750356,48, 18, -3, -3, -3, -2, -1, -8
1503942750364,-11, 2, -2, -2, 4, -1, -15, -1
1503942750378,-10, -2, -4, -2, -5, -4, -7, -8
1503942750386,8, 4, -3, -2, -2, 1, 3, 5
1503942750393,-12, -2, 0, -1, 3, 1, 3, 2
1503942750407,-2, -9, -3, 0, 2, -2, 1, -3
1503942750417,-11, -6, 1, 0, 0, -1, 7, 4
1503942750423,-8, -5, 1, -4, -5, -4, -1, -24
1503942750446,2, 2, -2, -4, -3, -1, 20, -26
1503942750461,-29, -6, -4, -3, -3, 1, 6, 14
1503942750468,18, 3, -2, 0, -1, 3, -2, 6
1503942750478,8, -1, -1, -1, 2, 3, -1, 9
1503942750484,-12, -1, -2, -4, -9, 0, -2, 7
1503942750498,5, -4, -1, -2, -3, -3, -9, -15
1503942750505,-16, 8, 1, 0, 4, -3, -8, -1
1503942750514,-9, -4, -6, -4, -5, -1, 12, 1
1503942750528,-10, 2, 0, 1, 0, 0, 0, 12
1503942750535,1, 1, -4, -1, -5, -9, -12, -9
1503942750544,-33, -11, -7, -3, 0, -2, -7, -7
1503942750558,-4, -2, 2, 1, 1, 2, 6, 0
1503942750565,19, 13, 6, -1, 0, -2, -3, 8
1503942750573,14, 12, 1, 0, -3, 0, 8, -5
1503942750588,30, -2, -6, -4, 0, -2, -17, -32
1503942750596,-30, -3, -1, 1, 3, 1, -6, -4
1503942750603,17, -8, -5, -2, -3, 0, 5, 16
1503942750619,-8, -4, -1, -1, 1, 1, -7, -1
1503942750625,-1, -13, -6, 2, 0, 1, 5, -1
1503942750633,5, -1, -1, -1, 0, -2, 7, 9
1503942750648,-5, 1, -2, -1, 2, 3, 4, 17
1503942750656,4, -5, -3, -1, 1, -2, -5, 4
1503942750663,-7, -5, -4, 1, 1, -2, 8, -4
1503942750679,15, 5, 6, -1, -2, 0, 1, 3
1503942750685,-12, 6, 2, -2, -2, -3, -1, 13
1503942750693,-12, 1, -5, -2, -2, -1, 4, 5
1503942750708,-15, 0, 10, 5, 2, 3, 2, 13
1503942750716,-11, -10, -4, -2, -2, -1, -7, -10
1503942750724,-32, -4, -7, -4, -4, -2, -1, -6
1503942750738,15, 0, -2, 0, 3, -1, -15, -10
1503942750747,11, 1, 1, -1, -1, 2, -5, 13
1503942750753,12, -9, 1, 1, 3, 3, 9, 11
1503942750769,-2, -10, -1, -1, -3, -3, -8, -23
1503942750776,2, 3, 1, 3, -4, -2, 7, 7
1503942750791,-4, 2, -2, 0, 0, -1, 2, 4
1503942750798,-5, 9, -2, 0, 0, -2, -6, -10
1503942750806,-49, -2, 1, 0, 2, 0, -4, -7
1503942750814,-4, 17, 12, 0, -1, -1, 8, 10
1503942750829,24, -2, -6, -4, -6, -4, 3, -4
1503942750836,-9, -1, -9, -4, -1, 1, 1, -15
1503942750852,23, 4, 7, -2, -3, -1, -3, 3
1503942750858,8, 7, 1, -2, -6, -3, -5, -12
1503942750866,-17, -5, -11, -3, -1, -1, -4, -31
1503942750873,24, 6, -3, 0, -2, 0, -4, 1
1503942750889,-5, 10, 2, -4, -4, -3, -1, 9
1503942750895,13, 4, 4, 2, -4, -1, 0, 0
1503942750896,-19, -10, -7, -2, 2, -1, 1, -5
1503942750914,11, 5, -2, -2, 1, 0, 1, -3
1503942750919,-21, -12, -1, -2, -5, -4, -8, 0
1503942750926,0, 5, 6, 5, 3, 2, 0, -7
1503942750933,-4, -4, -3, -1, 1, 1, 2, 3
1503942750950,4, -1, -3, 1, 2, 0, 0, 1
1503942750956,4, -6, -5, -5, -4, 0, 2, -23
1503942750971,11, 4, 3, -1, -1, -1, 2, 9
1503942750980,-6, -4, 1, 5, 5, 2, 1, 12
1503942750987,11, 2, 10, 3, 0, 1, -2, -3
1503942750993,-7, 7, 3, -2, -3, -2, -7, 9
1503942751009,-2, -6, -7, 1, 0, -1, 0, 5
1503942751016,7, 2, 0, 5, -1, 3, -2, 0
1503942751031,-4, 4, -5, -4, -4, -2, -1, 7
1503942751038,-7, -2, -2, -2, -1, -2, 1, 25
1503942751049,7, 3, -6, -2, 0, -1, -1, 5
1503942751061,1, 6, 2, 0, 0, -2, -6, 5
1503942751068,-11, -5, -1, 0, -1, 2, 2, 9
1503942751069,13, 7, -2, 2, 3, 1, 3, 4
1503942751075,1, 5, -9, -7, -5, -3, -4, -9
1503942751092,-13, -6, -2, -1, -2, -1, -5, -4
1503942751098,4, -8, -6, -1, -1, -3, -7, -5
1503942751106,2, -1, 2, -1, 2, -2, 5, 2
1503942751121,-5, -7, 1, 0, -1, -1, -3, -8
1503942751129,-2, -14, -11, -13, -2, -1, -3, -7
1503942751135,2, 4, -3, -9, 1, 1, 5, -12
1503942751152,45, -2, -10, -5, -3, -1, 4, -4
1503942751158,-10, 0, -3, 0, -1, -3, 1, -2
1503942751166,-21, -6, -4, 6, -4, -3, -1, 3
1503942751181,-2, 18, 7, 5, 1, 1, -1, 2
1503942751190,-6, -5, -5, 0, -5, -1, -4, 3
1503942751195,-3, -6, 1, 1, 4, 2, -2, 4
1503942751211,-19, -14, -2, 12, -1, -1, -1, -1
1503942751221,-10, -7, 3, -10, -3, -2, 2, -3
1503942751234,-13, -2, -1, -9, -3, -1, 0, 0
1503942751241,-18, -13, -11, -15, -1, 1, -6, -2
1503942751250,1, -1, 8, 0, 2, 1, 0, -10
1503942751257,-7, -11, -16, -5, -5, -2, -2, -3
1503942751272,6, -5, 1, 23, 4, 0, -3, 3
1503942751278,11, 2, 30, 23, 5, 4, 4, 2
1503942751292,6, 7, -8, -10, -2, -1, -2, -2
1503942751301,11, -8, -3, 4, -2, -5, -4, 0
1503942751309,-20, 8, 15, 11, -2, -2, 3, -2
1503942751316,5, 7, 31, 30, -2, 0, -2, 5
1503942751331,10, 31, 5, -22, -4, -1, -2, 2
1503942751338,18, -6, -10, 4, 5, 1, 0, 0
1503942751349,-15, 0, -14, 4, -2, -2, -7, -5
1503942751361,-10, -5, -17, -17, -4, -2, 3, 5
1503942751369,4, 5, -4, 13, 0, 0, -2, -9
1503942751370,-12, -4, -6, -7, 4, 2, 2, 0
1503942751376,-4, -16, -22, -19, -6, -4, 7, -16
1503942751392,13, -1, -3, -9, -2, 0, 1, 4
1503942751398,3, 3, -1, 0, 0, -2, -4, 0
1503942751406,0, -18, 1, 10, 1, 1, 3, -8
1503942751422,2, 8, 1, -10, -4, 0, 4, -5
1503942751429,-1, 7, 0, -8, 4, -1, -3, 2
1503942751435,-26, 2, 20, 22, 3, 1, -1, -9
1503942751452,29, -8, -7, 10, -6, -4, -7, -5
1503942751461,14, 4, -12, -11, -2, -2, -4, 8
1503942751468,-6, 1, 11, 1, 6, 2, 0, -4
1503942751483,3, 5, -2, 1, -1, -1, -4, 1
1503942751489,-12, 2, -6, -10, -1, -1, -1, 1
1503942751496,-20, -18, 1, 7, -6, -1, 0, -12
1503942751511,-2, -9, 10, 16, 7, 2, -4, 1
1503942751518,-17, -4, -21, -15, 2, 0, -3, 9
1503942751526,-6, 14, 9, 16, -1, -1, 0, -5
1503942751540,3, 0, -7, -6, -2, 0, 4, 4
1503942751551,-4, -4, -9, -15, -2, -3, -11, -8
1503942751563,-25, 0, -8, -5, -4, -5, -2, -11
1503942751571,-1, -16, 2, 4, 0, 2, 3, 0
1503942751572,-13, 3, 5, -2, 1, -2, 4, 11
1503942751578,20, 22, 18, -16, -2, -1, -11, 2
1503942751586,-13, 0, -5, -11, 2, 2, 1, -1
1503942751601,14, 12, -3, -1, 0, 2, 2, -15
1503942751609,1, -2, 20, 10, 5, 3, 1, -1
1503942751617,10, 3, -4, 0, -2, -3, 7, 6
1503942751631,-7, -11, -7, -2, -1, -1, -5, 4
1503942751638,-19, -6, -5, 1, -4, -4, -14, 4
1503942751646,-5, -3, -11, -18, -3, -3, -1, -4
1503942751661,28, -8, -16, -23, -2, -4, -1, 3
1503942751668,7, -11, -15, -11, -6, -4, -2, -10
1503942751675,-17, -6, -8, -4, 5, 0, -3, 0
1503942751692,-18, 3, 18, 5, -3, 2, 6, -1
1503942751698,-2, -8, -4, 2, -3, -1, 3, 1
1503942751706,0, -2, -8, 4, -2, -1, -6, 8
1503942751722,11, 8, 9, 11, 3, 5, -1, -2
1503942751737,13, 12, 8, 24, 3, 0, -1, 4
1503942751752,4, 5, 10, 6, 4, 2, 0, 6
1503942751758,-18, 1, 6, 3, 3, 2, 0, 2
1503942751766,-3, -9, 9, 4, -3, -3, -3, -7
1503942751781,-2, -5, 8, 7, 4, 1, 13, 3
1503942751789,36, 7, -13, -11, -8, -3, -5, -5
1503942751795,-8, -5, -9, -8, -5, -4, -3, -4
1503942751811,-17, -6, -17, -26, -2, 0, 0, 2
1503942751818,14, 4, 9, 2, 1, -1, -1, 1
1503942751827,-12, 10, 5, 7, 4, 2, 5, 18
1503942751841,-13, -19, 0, -5, -2, 1, 2, -3
1503942751851,-5, -4, -7, -5, -6, -5, 3, -2
1503942751856,-5, -12, -4, 6, -2, -2, 9, 3
1503942751871,3, 4, -3, 3, -1, 0, 8, -1
1503942751878,17, -2, -9, -2, -2, -2, -6, 3
1503942751894,-1, 34, 14, 11, 4, 3, -4, -11
1503942751900,-3, 2, -4, -5, 1, 0, -2, 0
1503942751908,-2, -4, -4, 0, -5, -3, -3, 9
1503942751909,-4, -13, -4, 2, -2, -2, -7, -6
1503942751915,-8, 21, 9, -4, -5, -2, 1, 2
1503942751931,-5, -11, -6, 14, -4, -3, -10, -3
1503942751938,-8, -9, -12, -2, -1, -1, -3, -1
1503942751953,0, -2, 0, -7, -2, -2, -1, -4
1503942751968,3, 5, 11, 20, 5, -1, -7, -2
1503942751969,24, -11, -7, -1, -2, -2, 8, 1
1503942751985,-20, -3, -9, -7, -1, 1, -4, -6
1503942751991,-25, -13, -7, -1, 0, 0, 0, 0
1503942751998,8, -6, -3, -5, -2, -3, -1, -1
1503942752013,7, 1, 2, -4, 6, 3, -1, 0
1503942752021,-8, 1, 1, 11, 3, 2, 6, 1
1503942752028,-2, -1, -3, -3, -3, -2, 3, 0
1503942752043,2, 0, -2, -6, -2, 0, 0, -2
1503942752058,4, 17, 0, -5, -2, -1, -3, -4
1503942752060,17, -10, -8, -5, -3, -4, 2, 14
1503942752073,7, 7, -5, -16, -14, -3, -2, 0
1503942752081,3, 7, 3, -2, 10, -1, -2, -8
1503942752089,-3, 4, 5, 8, 7, 0, 3, 0
1503942752103,-2, -2, -3, -5, -6, -2, -8, -6
1503942752111,-5, -13, -3, 12, 4, -2, -4, 0
1503942752120,7, 11, 2, -8, -4, 2, 1, 1
1503942752121,-5, -5, -4, 0, 0, 0, -3, -2
1503942752133,-4, -7, -4, -6, -4, -4, -3, -2
1503942752140,-5, 0, -1, -9, -3, 0, 1, 0
1503942752148,5, 12, 2, 6, -1, 0, -2, 2
1503942752149,3, -7, 0, 2, -2, -3, -1, -1
1503942752163,-2, -7, -5, -2, 2, -1, 4, -3
1503942752171,-1, 9, -3, 21, -3, 1, -1, 1
1503942752178,-6, 1, 11, 34, 0, 1, 0, -3
1503942752193,-8, -8, -8, -18, -3, 0, 0, -5
1503942752200,6, 2, -5, -9, -9, -1, -6, -2
1503942752210,-5, 6, 3, 0, 4, 0, -12, -6
1503942752223,-1, 13, -3, -7, 1, 0, 0, -3
1503942752231,-8, -7, -6, -8, 0, 0, 3, -2
1503942752238,1, -2, -2, 0, 0, -1, -5, -3
1503942752254,-1, 9, -4, -7, -4, -4, -3, 4
1503942752261,-5, 2, -5, 0, 0, 0, -3, 2
1503942752268,4, -9, 1, 2, 3, 0, 3, 8
1503942752283,-2, 0, 1, -9, 0, 1, -1, -1
1503942752291,-4, 1, 1, 1, 12, 2, 5, 0
1503942752298,40, 8, -2, -3, -3, -2, 4, 2
1503942752313,-2, -1, 2, -2, -7, 1, -4, -4
1503942752321,-3, -7, 1, 1, -6, -3, 1, 1
1503942752329,6, -2, -2, 0, -2, -1, -3, -2
1503942752343,-4, 3, -4, -7, -8, -3, -1, -6
1503942752352,7, -10, -2, 0, -1, 1, 3, 1
1503942752359,-1, -2, 6, -2, 3, -1, 4, 0
1503942752373,34, -2, -5, -2, -11, -3, -1, -2
1503942752380,-14, -4, -6, -5, -2, -2, -1, 2
1503942752391,-8, 7, 3, 0, -1, 0, 1, 10
1503942752403,20, 1, 3, 1, 2, -2, -2, 4
1503942752411,19, 1, 2, 3, 3, -2, -2, -4
1503942752418,-21, -2, -1, 0, 4, 1, 0, 2
1503942752433,-14, 1, 0, -3, -2, 0, -3, -1
1503942752440,-7, -3, 0, 1, 1, 0, 2, 2
1503942752449,-24, -12, -3, -1, -1, 0, 0, -9
1503942752463,-3, 3, -4, 2, -1, 2, -1, 10
1503942752471,-47, -14, 0, 0, 16, -1, -10, -7
1503942752478,-4, -2, 0, -1, -1, -2, -1, 0
1503942752494,6, 5, -5, -5, -5, -2, -3, 2
1503942752502,-5, -3, -3, -1, 1, 1, -6, -2
1503942752509,31, 13, 7, -1, -6, 0, 2, 2
1503942752524,16, 0, -2, -2, -4, 1, -2, -3
1503942752532,-7, 2, -1, 2, 0, 0, 1, -3
1503942752538,-2, 4, -3, -5, -2, -1, 0, -8
1503942752555,-1, 7, -1, -1, -1, 0, 1, -3
1503942752561,1, 2, -4, -1, -3, -1, -2, -5
1503942752568,17, 3, -7, -7, -25, -5, -3, -8
1503942752583,-9, -2, -1, -1, 0, -1, -1, 3
1503942752592,-5, -4, -3, -4, -3, -3, 1, 1
1503942752598,-44, -34, -3, 2, 4, 0, -5, -29
1503942752613,-19, -10, -2, -1, 2, 2, -1, 12
1503942752622,11, 16, -1, 0, 3, 0, 1, -2
1503942752629,-6, 6, 2, 3, 5, -1, 1, -7
1503942752643,11, 17, 6, 1, -4, -2, 6, 4
1503942752651,1, 8, 1, 1, 4, -1, 6, -3
1503942752658,3, -3, -4, -4, -9, -2, -2, -17
1503942752676,-15, 1, 5, 6, 7, 0, 1, 5
1503942752680,16, -12, -3, 0, 1, 0, 0, 0
1503942752691,9, -5, -6, -1, -1, 0, -6, -5
1503942752703,-2, 19, 3, -1, -2, -3, -7, 20
1503942752712,26, 14, -1, 0, 1, 0, 3, -4
1503942752718,9, -2, 2, 1, 6, -1, 15, 9
1503942752733,-14, -13, -7, 1, -1, -2, -2, 2
1503942752740,11, 2, -3, -1, -2, -1, -4, -25
1503942752749,-5, -4, -1, -2, 0, 1, 0, -6
1503942752765,-17, -3, -5, -3, -2, -1, -2, 2
1503942752772,23, 13, 2, -2, -1, -1, -2, -1
1503942752778,-22, -9, 3, 0, 1, 0, -4, 15
1503942752793,-30, -11, -2, -1, -3, 4, 1, 3
1503942752800,3, 1, -2, 7, 6, 6, -3, 2
1503942752808,-13, 5, -6, 0, 3, -5, -17, -9
1503942752824,-1, 2, 0, -4, -4, 0, -2, -4
1503942752831,-25, -4, -4, -1, -11, -3, 1, -1
1503942752838,-2, -5, -3, 0, 1, -5, -7, -2
1503942752853,27, 5, -1, -2, -2, 0, 1, 5
1503942752861,10, 5, -3, -4, -7, -2, 3, 3
1503942752868,4, 5, 1, -1, -1, -1, 0, -3
1503942752883,-17, -8, -3, -2, 0, -1, 1, 7
1503942752895,2, 3, -1, -4, 0, 0, 1, 3
1503942752905,-25, -7, 4, 1, -3, 0, 1, 3
1503942752913,-15, 17, 7, 2, 0, 1, 14, 15
1503942752920,-11, -19, 14, 4, -2, 2, -1, 2
1503942752923,33, 8, -11, -6, -3, -2, 0, 5
1503942752935,-14, 1, 5, -2, 2, -1, -3, -15
1503942752943,-15, -7, 8, 1, -1, 0, -4, -3
1503942752951,-3, -15, -2, 2, 3, 3, -3, 4
1503942752966,-2, -10, -3, -3, -2, -1, -1, 3
1503942752973,-20, -10, -9, -1, -1, -1, 0, 6
1503942752980,-17, -9, -8, 3, 4, -2, -4, -3
1503942752995,26, -8, -2, -2, 0, 0, 6, 10
1503942753010,20, 21, 5, -2, 2, -3, -8, -3
1503942753011,-16, -6, -6, -3, -2, -2, -3, -3
1503942753026,-6, 0, -2, -4, -3, 0, -1, 3
1503942753033,-4, -6, -10, -5, -2, 2, 4, -16
1503942753040,-26, -17, -6, 1, -2, -2, 1, -10
1503942753058,-26, -2, -4, -1, -3, 1, -8, -22
1503942753063,8, 0, 2, 2, -1, 2, 0, 7
1503942753071,30, 2, 0, 1, -1, -7, -5, 8
1503942753085,0, 3, -1, -1, -1, 1, 1, 1
1503942753093,15, -6, -5, 4, 4, 1, -1, 2
1503942753101,1, 0, 0, -3, -1, -1, -2, -7
1503942753115,11, -5, 11, 7, 2, 0, -7, 5
1503942753125,12, 8, 4, 2, 0, 2, 15, -7
1503942753131,-4, -1, -10, -4, -2, -2, 3, 13
1503942753145,-39, -6, 5, -2, 0, 2, -3, 1
1503942753153,13, 8, 0, -4, -3, -3, 0, 8
1503942753161,-9, 3, -8, 1, 1, -1, -19, -35
1503942753175,-20, -17, 1, 1, -1, -1, -3, 0
1503942753183,3, -4, -6, 0, 1, -4, 1, 6
1503942753192,-15, -13, -5, -1, 2, -6, -2, -13
1503942753205,19, -7, 1, 3, 3, -2, -16, -6
1503942753213,11, 47, 19, 1, -3, 2, 12, 0
1503942753220,19, -9, 1, 0, 0, 0, 9, 8
1503942753236,18, -6, -7, -3, -4, -3, -10, -12
1503942753243,15, 14, -3, -5, -6, -3, 5, -12
1503942753251,-7, 11, -4, -5, -4, -2, -8, -7
1503942753265,8, 0, -4, -6, -4, -4, 14, 13
1503942753273,-6, 0, -2, 11, 17, 12, -3, 4
1503942753280,-23, -4, -2, -7, -14, 0, -5, -1
1503942753296,18, -5, -2, -4, 0, -1, -5, 5
1503942753303,-3, 0, 3, 8, 9, 4, -13, 10
1503942753311,-25, -10, -1, -2, -8, -1, 2, 3
1503942753326,-4, 5, -11, -2, -6, -4, -3, 3
1503942753333,-2, -10, 1, -3, -3, -1, -1, -7
1503942753340,21, 15, 6, 0, 4, 3, 6, 12
1503942753356,2, -5, -4, -1, -1, 3, 9, 3
1503942753363,-9, -9, -8, -7, -2, -3, -8, 5
1503942753364,19, 9, 8, 4, 0, -1, -5, -18
1503942753371,7, 6, 0, -4, -8, -7, -9, -20
1503942753385,-7, -11, -5, -3, 1, -1, -4, -5
1503942753395,-16, -19, -6, -3, 0, -2, -4, -13
1503942753401,-28, -9, -7, -3, 1, -1, 2, 5
1503942753415,5, 2, -8, -7, -5, -5, 1, 9
1503942753423,17, 0, 5, 2, 0, -1, 3, 9
1503942753431,-1, -4, -5, -1, -1, -1, -6, 8
1503942753446,-22, -2, 6, 1, 1, 1, 15, 4
1503942753453,-21, 5, 4, -1, -3, 0, 2, 3
1503942753461,19, 6, -2, -2, 0, 1, -5, 11
1503942753462,-21, -13, -3, -4, 0, -1, 4, 26
1503942753475,-5, 1, -4, -4, -1, 5, 2, 0
1503942753476,27, 5, 7, 5, 4, -5, -12, 18
1503942753483,-2, -3, -6, -2, -1, -4, -2, -4
1503942753493,10, -8, -10, -6, -3, -3, 2, 8
1503942753507,7, 3, -1, -4, -3, 1, 2, -10
1503942753514,-5, 9, 0, -6, -5, -9, -8, -15
1503942753520,-2, 0, 1, 3, -1, 2, 11, -1
1503942753521,-8, -3, -2, -2, -3, -6, -8, -5
1503942753536,-1, 3, 1, 2, 0, 3, 4, -28
1503942753543,1, 4, -2, -3, -4, 12, -2, -11
1503942753551,4, -4, 1, 5, 0, 10, 18, 3
1503942753566,26, 1, 0, 1, 11, 1, -10, -8
1503942753573,1, 2, -4, -3, 0, 0, 3, -3
1503942753580,6, 1, -2, 1, -4, -4, -12, -2
1503942753596,0, 1, 2, 4, 2, -2, -1, 7
1503942753603,12, -11, 0, 5, 0, -12, 2, 0
1503942753611,-27, -11, -13, -3, -2, 0, -6, 14
1503942753629,-32, -5, -16, -8, -6, 0, 0, 2
1503942753633,-17, -24, -5, -3, 1, -1, 4, 20
1503942753641,3, -1, 5, 2, 2, 1, 2, 2
1503942753656,-6, 10, 3, 0, 0, 1, 5, -26
1503942753663,23, 12, -2, -1, -3, 3, 3, -2
1503942753671,16, 2, 0, -3, -2, 1, 1, -6
1503942753685,-9, 5, 7, 3, 3, -2, -4, -14
1503942753686,-28, -26, -7, -1, -1, -2, -3, -6
1503942753695,3, 8, -1, 0, -3, -3, -8, -19
1503942753700,-6, -8, -2, 2, 0, 1, 1, 1
1503942753701,-24, -2, -1, -1, 1, 0, -1, -10
1503942753715,7, 8, 4, 0, 2, 1, 6, 13
1503942753723,10, 1, 2, 0, -2, -1, 6, 10
1503942753733,-12, -2, -4, -2, 0, -3, -9, 0
1503942753745,8, 1, 1, 3, 1, -1, 3, -10
1503942753753,0, 6, -2, -4, -6, -4, -5, -15
1503942753754,-8, -2, 0, 1, -3, 0, 7, 2
1503942753761,32, 11, -3, -2, -2, -1, -4, -1
1503942753776,10, 1, 6, -1, 1, 1, 4, 52
1503942753783,32, 19, 3, -1, -2, -2, -5, 8
1503942753792,-16, -7, -9, -5, -2, 1, -11, -1
1503942753794,18, 5, 1, 0, 2, -6, -8, -2
1503942753805,-35, -7, 1, 0, 0, 2, 1, -3
1503942753813,-39, -9, -5, -1, -3, 0, 4, 0
1503942753829,-6, 8, 6, 4, 1, 0, 0, 3
1503942753836,15, 0, 0, 1, 1, 2, -5, -22
1503942753843,-13, -6, -9, -6, -4, -3, -3, 9
1503942753858,12, 2, 4, -1, -1, 1, 1, 12
1503942753866,-34, -12, -10, -2, -3, -2, -4, -20
1503942753873,29, 4, -1, 1, 1, 2, 2, -6
1503942753887,2, 1, 1, -2, -1, 2, 8, 32
1503942753899,-11, -1, 1, 3, 5, 3, -11, -13
1503942753903,5, 7, -7, -4, -7, -6, -2, 14
1503942753918,-6, 2, 3, 0, -1, -1, 1, -7
1503942753925,5, -5, -5, -1, 0, -2, -1, 4
1503942753926,8, 0, 2, 3, 1, 0, -4, -11
1503942753934,-21, -4, 0, -1, -6, -2, 5, -10
1503942753947,-10, 4, 0, -1, 1, -2, -14, -4
1503942753955,-1, 6, -4, -2, -4, -6, -7, -9
1503942753963,8, -10, -2, -1, 1, 2, 3, -8
1503942753978,-13, -12, -4, -2, -1, -1, -4, -15
1503942753985,31, 4, -4, -2, -1, 0, -1, 7
1503942753995,-9, 0, -4, 0, 0, -1, 9, 3
1503942754007,22, 6, 8, 0, 0, 2, 11, 29
1503942754015,-32, -16, -4, -3, -2, -3, -10, -1
1503942754023,-14, 1, -6, 1, 0, -4, -1, -15
