1503964057703,-5, -1, -1, -1, -1, -1, -1, -7
1503964057711,-2, 1, 2, -1, -1, 0, 0, 5
1503964057718,-7, 1, -2, -2, -2, -3, -7, -8
1503964057736,0, 3, -2, -2, 0, -2, -1, -2
1503964057747,3, 2, 2, 1, 1, 0, 1, 5
1503964057752,1, 2, -2, -3, 0, 0, 0, 3
1503964057763,1, -2, 0, -1, -2, -2, 0, 4
1503964057771,1, -5, -3, -2, -2, -1, 2, 1
1503964057778,1, -3, -5, -2, 0, -2, 1, 1
1503964057793,-2, -1, -3, 1, 1, -2, -1, 2
1503964057800,-4, -16, -3, 0, 0, -1, -2, -5
1503964057808,-2, -1, 0, 0, 0, -2, -2, -2
1503964057823,2, 5, 0, -2, -2, 1, 3, 3
1503964057831,-3, -4, -1, -1, -1, 0, 0, -6
1503964057838,-9, -4, -1, 2, -2, -1, -3, -13
1503964057853,0, -2, -9, 0, -3, -2, -2, 1
1503964057861,4, 4, 3, 11, 2, 1, -2, 5
1503964057868,2, 5, -1, -9, 0, 0, -1, -3
1503964057884,1, -1, -4, -5, -1, 0, 3, 3
1503964057885,-3, 2, -2, 1, 0, -2, -1, -2
1503964057891,0, -10, -5, -1, -2, -2, 0, 2
1503964057898,2, 9, 4, -3, -1, -1, -1, -1
1503964057913,0, 0, 2, 2, -2, 0, -2, 4
1503964057921,0, -6, -2, -4, -1, 0, 1, 2
1503964057929,-1, -1, 2, 1, -1, -1, -1, 2
1503964057943,3, 4, -4, -4, -2, 0, -2, 3
1503964057951,-1, 4, 3, 1, 1, 0, 0, -5
1503964057958,-3, -1, 4, 0, -1, -2, -1, -4
1503964057973,-2, -4, 4, 0, 0, -2, 0, 0
1503964057980,2, 2, -2, -2, -2, -1, 0, -3
1503964057989,0, 4, 0, 1, -2, 0, -1, -1
1503964058003,-2, -6, -4, -2, 1, -1, 0, -3
1503964058011,1, -2, 0, -1, -2, -1, 0, -1
1503964058018,-10, -3, 0, -2, -4, 0, -5, -17
1503964058019,0, -3, 2, -2, 0, 1, -1, 3
1503964058033,0, 1, 0, -2, -1, -3, 1, 0
1503964058040,-4, -1, 2, 0, 0, 0, -1, -1
1503964058048,-3, 0, -2, -1, 0, 0, 0, 1
1503964058063,-3, -2, 0, 1, 1, -3, -2, -3
1503964058071,1, -11, -2, -1, 1, -1, 0, -3
1503964058078,-1, 4, -1, -4, -2, -2, 0, -2
1503964058094,1, 3, 1, -1, -1, -2, -1, -3
1503964058100,1, -5, -2, 1, 1, 0, 1, 13
1503964058108,-2, 1, 0, 1, -1, 1, -1, -3
1503964058123,-1, -5, -4, -2, -3, 0, -2, -5
1503964058132,-4, 2, -3, -2, -1, 0, 0, 2
1503964058138,0, 9, -1, 0, -1, -2, -2, -4
1503964058153,-5, -5, -2, -1, -1, -1, 0, -3
1503964058161,-1, -2, -3, 0, -1, -2, 1, 1
1503964058168,-2, 3, -1, -2, -2, 1, -2, 4
1503964058183,0, -2, -2, -3, -1, 1, 0, 2
1503964058191,-2, -9, -4, -1, -1, 0, -3, -4
1503964058198,0, 1, 1, 0, -1, 1, -1, -3
1503964058213,3, 0, 1, -1, -1, -1, -2, -1
1503964058221,-2, -1, 0, -3, -1, -3, -1, 2
1503964058231,-2, 2, -1, -1, -1, -2, 0, -1
1503964058243,-5, -2, -2, -2, -2, 1, 0, -3
1503964058253,0, -2, 1, 2, 1, -2, -1, -3
1503964058258,2, 3, 3, 1, -1, -1, 0, -2
1503964058273,-1, -1, -2, -1, 1, 0, -2, 1
1503964058280,4, 1, 0, -1, -1, -1, -2, 2
1503964058281,-1, -1, -2, -1, -2, 0, 0, 1
1503964058288,-3, -1, -2, -3, -3, -1, -2, -5
1503964058303,-1, -5, -2, 0, -1, -2, -3, 0
1503964058311,0, 0, -3, 0, -2, -1, 0, 1
1503964058318,-7, 2, -2, -2, -1, -1, -2, -6
1503964058333,-5, -14, -3, 0, -1, -1, 0, -5
1503964058340,4, 4, 1, 0, -1, 0, 1, 3
1503964058355,-3, 2, -1, 1, -2, 0, -1, -6
1503964058364,2, -4, -1, -1, -1, -2, 0, 1
1503964058371,4, 3, -1, 1, 0, -2, -2, 1
1503964058384,-5, -3, -4, -1, 0, -2, 1, 1
1503964058385,0, -4, -2, -3, -1, -1, -3, -3
1503964058393,3, 3, 3, 0, -1, -1, 1, -1
1503964058400,-6, -6, -3, 1, -2, -1, -4, -9
1503964058415,1, 14, 1, -1, -1, 0, 0, 0
1503964058423,-2, -11, -1, -1, 1, -1, -1, 3
1503964058431,0, 1, -2, -2, 0, -2, -2, -2
1503964058444,4, 0, -2, -2, -1, -2, 0, -4
1503964058456,0, -4, -1, 0, 0, 0, -1, 5
1503964058461,-3, 1, 3, 1, 1, 0, 2, 4
1503964058475,2, -2, -2, -1, -1, -1, 0, 6
1503964058483,1, 1, -3, -4, -1, -2, 1, 0
1503964058491,2, 4, 0, -1, 0, -2, -1, 3
1503964058505,-3, -10, -4, 0, -2, -1, -1, -2
1503964058513,-3, -1, 1, 1, 0, -1, -5, -4
1503964058522,-3, 4, -2, 0, 0, 0, -2, -5
1503964058535,-1, 3, 4, 3, 0, 0, 1, -1
1503964058542,4, 6, 1, -1, 0, 1, -1, 6
1503964058551,-2, -6, -2, -1, -1, 0, 1, 0
1503964058565,-3, -2, -2, -3, -2, 0, 0, 1
1503964058573,-3, -3, -2, -2, -2, -1, 1, 2
1503964058580,1, 0, -1, 1, -1, 1, -2, -3
1503964058595,-1, 0, 1, -2, -2, -1, 0, 3
1503964058603,0, -6, 3, 0, -2, -1, -2, -1
1503964058611,-1, -8, -2, -2, -2, -1, 0, -5
1503964058626,2, 3, 3, 1, 2, 0, -2, -1
1503964058639,0, -2, -4, -2, -2, -2, -4, -8
1503964058641,-2, -1, 0, 1, -1, -1, -1, 1
1503964058656,1, -1, -3, -1, -1, -1, 0, -3
1503964058663,-4, -7, -3, -2, -1, -1, -1, -4
1503964058671,0, 10, 2, 1, 0, -1, 0, 2
1503964058684,2, 1, 2, -2, 2, 0, 1, 1
1503964058693,-2, -5, -1, -1, 0, 2, 0, -1
1503964058700,-2, 2, -2, -2, -2, -2, -2, 1
1503964058715,0, -6, -5, -1, 0, 0, -2, 0
1503964058724,-2, 5, -2, 0, -1, 0, -1, -2
1503964058731,-3, -4, -2, -1, -2, -1, -3, -4
1503964058745,4, 3, -1, 0, 0, 1, 2, 3
1503964058753,0, -1, 0, 2, 0, -1, -4, 1
1503964058760,1, 1, -1, 0, -3, -2, 0, 1
1503964058775,0, 4, 3, 0, 0, -1, -1, -3
1503964058782,-1, -6, 0, -1, -1, -1, 2, 1
1503964058783,-1, 3, -2, -2, -3, -2, 0, -9
1503964058799,-1, -8, -4, -2, 0, -1, -1, 0
1503964058804,-5, -7, -3, -1, -1, -2, -3, -2
1503964058812,2, 4, 3, -1, 0, 0, -2, 0
1503964058827,-1, -6, -1, 1, 1, 0, 0, 0
1503964058835,-4, 2, -2, -2, 1, -2, 0, -4
1503964058843,-1, 5, 2, 0, -3, -1, -2, -5
1503964058851,-1, -2, 0, -1, -1, -2, -1, 0
1503964058865,-1, 2, 1, -1, -1, -1, 3, 0
1503964058873,2, 4, 1, -1, -1, 2, 2, 7
1503964058880,-2, -12, -3, 0, 1, 0, 1, 9
1503964058895,1, -1, 0, 1, -1, 0, 1, 3
1503964058903,2, 5, 1, 1, 1, -1, -3, 0
1503964058911,2, 0, 1, -1, -3, -3, -2, -1
1503964058925,-3, -1, -2, -1, -2, -1, -6, -10
1503964058933,2, -1, -3, -2, -2, 1, 2, -4
1503964058940,-3, -4, -1, 0, -1, 0, -1, 3
1503964058955,-3, -9, -2, 1, -1, -1, 0, 1
1503964058963,2, -2, -3, -1, 1, 0, -3, -5
1503964058971,-2, -1, -2, -3, 0, -1, -2, 0
1503964058985,0, 5, 1, -2, -1, 0, 3, 6
1503964058993,0, -1, 0, 1, -1, -2, 0, 1
1503964059000,-1, -5, -3, -2, -3, 0, -1, 0
1503964059015,-4, -2, -2, -1, -2, -2, 0, -2
1503964059023,2, 9, 8, 0, 1, -1, -1, 0
1503964059031,-2, -1, -1, 2, -1, -1, 2, 7
1503964059045,-2, -3, -4, -2, -1, -2, 0, 2
1503964059052,2, 7, 0, 2, -1, -2, -2, 1
1503964059053,-1, 0, -3, -2, 0, 1, -4, -2
1503964059060,-4, -3, -3, -3, -2, -1, 0, -2
1503964059075,1, 6, 2, 1, 0, -1, -3, -3
1503964059082,-1, -6, -2, -2, -2, -3, 0, -2
1503964059083,-3, -5, -4, 0, 0, -2, -1, -3
1503964059092,4, 0, -2, -2, 0, -1, -2, -8
1503964059104,2, 3, 1, 0, -3, -3, 0, 2
1503964059112,0, -3, 0, -1, 0, -1, 1, -1
1503964059120,1, 1, 2, 0, -1, 2, 0, 1
1503964059135,-3, -2, -1, -2, -1, -1, -2, -4
1503964059142,-2, 1, 1, -1, 1, 1, -1, -6
1503964059159,-5, -19, -5, 2, -1, 1, 0, -2
1503964059160,1, 1, -1, 0, 0, 0, -2, -1
1503964059166,1, 7, 1, 0, 0, -1, -2, 1
1503964059173,-2, -1, -3, -3, -2, 0, -1, -4
1503964059180,5, -3, -4, -1, -1, -2, -1, 8
1503964059195,1, 5, 2, -2, 0, -3, -2, -1
1503964059196,-1, 0, 2, -1, -1, -1, 0, 4
1503964059203,-1, -3, -1, 1, 0, 1, 0, -3
1503964059211,3, -2, -2, 0, -1, 0, 0, 4
1503964059224,-2, -1, 0, -1, -1, -2, 1, -5
1503964059233,-3, 2, -1, 0, -1, 0, -2, -2
1503964059240,1, -2, -2, -3, -1, 0, 1, 8
1503964059255,-1, -2, 0, 0, -1, -1, 3, 3
1503964059264,-2, -3, -2, 0, -1, 0, -1, -2
1503964059277,-1, 3, 0, 0, -1, -2, -3, -4
1503964059284,-1, -2, -1, 0, -1, 0, 0, 1
1503964059294,-3, -3, -1, 2, -1, -1, -1, -1
1503964059307,1, 2, -1, -5, -2, -2, -2, -1
1503964059315,-6, -7, -2, -4, 0, -1, 1, 0
1503964059322,-5, -2, -1, -1, -1, 0, -3, -6
1503964059338,0, 5, 1, -2, -1, -1, -1, -6
1503964059344,-4, -2, 2, 1, -1, -1, -2, -7
1503964059352,-3, -9, 0, 0, 1, 0, -1, 1
1503964059353,1, -1, -2, 0, 1, 1, 1, -2
1503964059367,0, -1, 0, -1, -1, -2, -1, -1
1503964059375,3, 1, 1, 0, -1, -1, -1, 3
1503964059382,-2, 0, -2, -1, -1, -3, -4, -2
1503964059398,-2, -4, -1, -2, 0, 1, -1, -3
1503964059404,-1, -4, -2, 0, 0, 1, -1, -1
1503964059412,1, 8, -1, -2, -2, -1, -1, -3
1503964059428,1, -13, -7, -1, 0, 0, 0, -2
1503964059436,-1, -3, -6, 0, -2, -2, -1, 0
1503964059442,1, 1, 0, 1, 0, 0, 1, 3
1503964059458,-4, -3, -3, -1, -1, -2, 0, -3
1503964059465,2, -1, 2, -1, -1, -2, -1, 0
1503964059472,0, 0, 1, -1, 0, 3, -1, 3
1503964059487,-3, 1, 0, 0, -2, -1, 2, -1
1503964059496,0, 4, 2, 0, -3, 0, 0, 0
1503964059503,-2, -14, -1, 0, 0, -3, 0, 0
1503964059517,-2, -4, -3, 0, 2, -3, -3, -5
1503964059524,0, 3, -1, -1, -1, 0, -1, 0
1503964059533,-4, -8, 1, -1, -2, -3, 0, 4
1503964059547,0, 3, 0, 0, 0, 0, 0, -1
1503964059555,0, 0, -2, 0, 0, 1, 1, 1
1503964059563,-5, 0, 0, -1, -3, -1, -4, -3
1503964059577,-2, 6, 2, 0, 0, 0, -1, -2
1503964059584,2, -3, -2, 0, 0, -1, -1, 0
1503964059592,1, -2, -2, -2, -1, -1, -1, 1
1503964059607,1, 5, -2, -1, -1, 0, 0, 1
1503964059615,0, 0, 0, -1, -2, -2, -3, -12
1503964059622,0, 1, -2, -1, -1, -3, 1, -2
1503964059638,2, -5, -3, -2, 0, -2, 0, 2
1503964059644,-2, -3, -3, -1, 0, -1, -2, -4
1503964059653,-2, -4, 0, -1, -1, -1, -2, -2
1503964059667,0, 1, 3, 0, -1, -2, -1, -1
1503964059675,-5, -19, -3, -3, -1, -1, 0, -7
1503964059682,0, 4, -1, 0, -2, 0, 1, -8
1503964059698,3, 5, 1, 0, -1, -1, 2, 3
1503964059706,2, 1, -3, 0, 0, 1, 0, 0
1503964059712,-5, -4, 0, -2, -2, -1, -2, 0
1503964059713,1, 8, 1, -1, -2, 0, 0, 3
1503964059727,0, 4, 0, -1, 0, 0, -1, 3
1503964059735,0, -4, -3, -2, 1, 0, -2, 1
1503964059742,-1, -6, -1, -2, -2, 0, 0, 3
1503964059758,1, -1, -2, -1, -1, -1, -1, -5
1503964059768,1, 5, 3, 3, -2, -3, -1, 2
1503964059769,-3, -3, -1, 0, 0, -2, -1, -4
1503964059773,-1, 1, 0, 0, 1, -2, -1, 0
1503964059787,4, 8, 2, 2, 1, 0, -1, 7
1503964059796,-1, -2, -1, 1, 0, 0, 0, 1
1503964059803,-2, -3, 1, -2, -2, -2, -1, 0
1503964059818,-3, -11, 0, 1, -2, -2, -2, 2
1503964059825,-1, 0, -2, -1, -2, 0, -2, 0
1503964059833,3, 1, -5, 0, -3, 0, -1, 2
1503964059847,-2, 1, -2, 1, 0, -2, -1, -4
1503964059855,-2, 3, 4, 0, -1, -1, 0, 3
1503964059866,-1, -3, -1, -2, -2, 0, 2, 0
1503964059877,-1, -1, -1, -1, 0, -1, -2, -3
1503964059885,-1, 0, -1, 0, -1, 0, 0, 0
1503964059892,1, -2, -1, 1, 0, -1, -1, -4
1503964059893,3, 6, 2, 1, 0, 0, 0, 0
1503964059907,-2, 2, 0, -2, -2, 0, -2, -1
1503964059915,0, 10, 4, -1, -1, 1, 0, 1
1503964059923,-2, -5, -1, -2, -1, -1, -2, -2
1503964059938,1, -1, -2, 0, 2, 0, -1, -2
1503964059944,-7, -7, -2, -3, -2, -1, -2, -10
1503964059953,1, -1, -4, -4, -2, -1, 0, -3
1503964059971,-2, -10, -3, -2, 1, 0, -1, -1
1503964059975,-1, -4, -5, 1, -1, -3, -1, -5
1503964059982,2, 9, 2, -2, 0, 0, 2, 7
1503964059999,-4, -18, -4, -1, -1, -1, 2, -2
1503964060006,3, 3, 0, 1, 0, 0, -1, 0
1503964060013,-4, -2, -3, -3, 0, 1, 0, 2
1503964060027,-7, -3, -2, 0, 0, -2, -3, -10
1503964060035,-3, 5, 1, -1, -1, 0, -2, -5
1503964060043,5, -3, 3, 1, -1, -2, -3, 2
1503964060058,1, -2, -3, 0, -1, -1, -1, 1
1503964060073,3, 6, -3, -2, -2, -2, 2, 2
1503964060074,-2, -10, 0, -3, -2, -2, -1, 0
1503964060087,3, 0, -2, 0, 0, -1, -1, 4
1503964060105,0, -2, -1, 0, 0, 0, -1, -1
1503964060106,-3, 0, -1, -3, -1, 0, 1, -3
1503964060118,3, 1, -1, 0, -1, -1, 0, 6
1503964060125,-3, -13, -1, 1, -1, 0, -3, -1
1503964060134,4, 2, 1, 1, 0, 0, 0, 9
1503964060147,-3, 0, -3, 0, -1, 0, 0, -3
1503964060155,-1, -5, 0, 0, -1, 0, -2, -5
1503964060163,0, 4, 0, -1, 0, -1, -2, 3
1503964060178,-1, 7, -3, -3, -1, -1, 0, -4
1503964060186,2, -5, -5, 0, 1, 1, 0, -1
1503964060193,-3, 7, 1, 0, -1, -3, -2, -2
1503964060207,-2, 0, -3, -3, -2, -3, 0, -2
1503964060215,-3, -6, -2, -1, 0, 1, 0, -2
1503964060229,-1, 2, 1, 1, -1, 0, -2, -1
1503964060238,-4, 1, 4, 0, 0, 0, -2, -5
1503964060245,3, 4, 1, 0, 0, -2, 0, 1
1503964060260,2, 0, 0, 1, -2, 0, 1, 7
1503964060270,-1, 4, 0, -1, -1, -1, 1, -1
1503964060275,4, 3, -1, -1, 0, -1, -3, 4
1503964060289,-3, 4, 3, -2, -2, 2, 1, 5
1503964060297,-1, -6, -3, -1, -1, 0, -1, -3
1503964060306,3, -1, 0, 0, 0, -1, -1, 2
1503964060320,-1, -3, -3, 0, -4, -3, -3, -4
1503964060327,-2, 2, -3, -1, 0, -1, -1, 0
1503964060336,-2, -4, -2, -3, -1, -1, 1, 0
1503964060349,0, -7, -3, -1, 0, -3, -2, 0
1503964060358,0, 1, 0, -1, -1, 0, -1, -1
1503964060364,0, 1, 3, 1, -1, 0, 0, -1
1503964060380,-1, -5, -3, -3, -2, 1, -1, -3
1503964060387,-1, 1, -1, 0, -2, 0, -2, -2
1503964060395,5, -4, 0, 0, 0, 0, 0, -2
1503964060410,-1, -2, 0, -2, -3, -1, -2, -7
1503964060417,0, 8, 3, 1, -3, -3, -2, -9
1503964060425,2, -1, -1, -1, -1, -3, -2, 2
1503964060441,-2, -6, -6, -2, -2, -1, 0, 2
1503964060447,-5, -5, -2, -2, 1, -1, -1, -5
1503964060455,-1, 2, 1, -1, 1, -1, 0, 2
1503964060470,1, 5, -1, -1, -1, 0, 0, -1
1503964060478,-5, -12, -2, -1, -2, -2, -2, -6
1503964060485,1, -5, -3, -2, -1, 1, -2, 0
1503964060503,-1, 3, -1, 1, 1, -1, -1, 2
1503964060508,1, 0, -2, -1, -1, 0, 0, 3
1503964060515,-3, -2, -1, -2, -1, 0, -1, -3
1503964060529,-2, 0, 2, 1, 1, -3, -3, -3
1503964060538,0, 3, 2, 1, -1, -1, -3, -3
1503964060545,-3, -4, -3, -1, -1, -2, 0, -3
1503964060560,-5, 8, 0, -3, -1, -2, -1, 0
1503964060579,-2, -2, 1, -1, -1, -2, 0, -3
1503964060584,2, 2, 2, 0, 0, 0, 0, 4
1503964060589,-1, -1, 2, -2, -1, 0, 1, 9
1503964060590,-11, -4, -5, -4, -2, -2, -2, -20
1503964060598,-2, 0, 1, 0, -1, -1, 1, -8
1503964060605,3, -4, 0, 1, 0, -2, -2, 6
1503964060620,0, -6, -6, -3, 0, 0, 0, -1
1503964060627,3, 3, 1, 2, -1, 0, 0, 2
1503964060637,0, -9, -1, -1, 0, -2, -7, -7
1503964060638,2, 4, -2, -1, -2, 0, -1, 4
1503964060649,1, 2, -1, -2, -2, -3, 1, 3
1503964060657,1, -1, 1, 1, -1, -1, -3, -3
1503964060665,-1, -3, -2, -1, 0, 1, 0, 0
1503964060680,2, -4, -2, 3, 1, -2, -6, -1
1503964060687,2, 2, -1, -5, -1, 1, -1, 4
1503964060695,1, -2, -4, -2, -2, -1, 0, 2
1503964060711,0, 1, 2, 3, -1, -2, -3, -2
1503964060724,-3, -2, 0, -3, -1, -1, 1, 4
1503964060726,2, -6, -2, -2, -2, 0, 1, 6
1503964060740,0, 3, -1, -1, -1, -1, 1, -1
1503964060747,3, -4, -2, 0, 0, -1, -1, 0
1503964060755,-4, -6, -2, -3, 0, -3, -2, -3
1503964060775,-4, -5, -3, -3, -1, 1, -1, -1
1503964060778,-6, -1, 1, -2, -3, 0, -6, -15
1503964060785,-4, 1, -1, -1, -1, -1, -1, -6
1503964060800,4, 5, 0, -2, -1, 0, 2, 3
1503964060807,1, 3, -1, -1, 0, -2, -1, 0
1503964060815,-3, -4, -3, 0, -2, -1, 0, 1
1503964060829,0, 0, -3, -3, -2, -1, 1, 2
1503964060838,2, 0, 2, 0, 0, -1, 1, 1
1503964060846,0, 3, 0, -2, -3, 0, -2, 1
1503964060860,4, 0, -1, 1, 0, -1, -2, 8
1503964060867,-4, -3, 0, 0, -2, -2, -2, -13
1503964060875,-1, -3, -1, 1, 1, 1, 1, 1
1503964060890,2, 5, 2, 0, 1, 0, 0, 5
1503964060898,-3, -3, 2, -2, 0, 0, 0, -1
1503964060913,-3, -7, -1, -1, -1, -1, 2, 3
1503964060920,-5, -7, -4, -2, 0, -2, -2, -9
1503964060928,-1, 6, -1, 1, -1, -1, 0, 0
1503964060936,2, 0, 0, 2, 0, 1, 2, 4
1503964060951,3, -2, -1, 1, -2, -1, 1, 4
1503964060957,2, 0, 1, -2, 0, 1, -1, 1
1503964060973,-4, -11, -1, -2, 0, -2, -1, -2
1503964060981,-8, -4, -6, -2, -3, -2, -1, -6
1503964060988,-1, 3, -1, -1, 0, 0, -5, -5
1503964060995,3, 4, 1, -3, 0, -1, 0, 3
1503964061010,4, -2, -3, 0, -1, 0, 2, 7
1503964061017,0, 4, 0, 0, -2, -3, -2, -7
1503964061033,0, 2, 1, -1, 0, 1, 1, 3
1503964061040,1, 3, 2, 0, -1, -1, 1, 2
1503964061048,3, 4, 2, 0, 0, 0, -3, 2
1503964061055,-1, -4, 1, -1, 0, 0, 0, 1
1503964061072,-2, 0, -2, -4, -1, 0, 1, -5
1503964061078,0, -3, -1, -1, -1, -1, 0, 4
1503964061093,1, -1, -4, -2, -1, -2, 1, -6
1503964061100,0, 1, -1, 0, -1, 1, -1, -1
1503964061108,-4, -15, -1, 0, -1, -2, -3, -5
1503964061115,-4, -1, -2, -2, -1, -2, -4, -7
1503964061131,-6, 1, 0, -1, -2, -2, 0, -4
1503964061139,-4, -4, 0, -1, -1, 0, -1, 1
1503964061153,-2, 2, 1, 1, 0, -1, -1, 2
1503964061160,0, 1, 1, 1, -2, -1, 1, 0
1503964061168,1, -3, -3, 2, -2, 0, 1, 3
1503964061183,1, -12, -4, -1, 0, -1, 0, 1
1503964061191,-7, 3, -1, -2, -2, -2, -2, -4
1503964061197,-4, -4, -2, -3, 0, -2, -3, -2
1503964061213,1, 3, 2, 0, 0, -1, 0, 1
1503964061220,1, 1, -3, -1, -1, 0, -1, -3
1503964061228,-2, 0, -3, 0, -2, 1, -3, -2
1503964061243,-2, -12, -2, 1, -1, -2, 0, -1
1503964061251,1, 1, 3, 1, 0, 0, 0, -6
1503964061258,1, 9, 0, 1, -1, 1, 0, 3
1503964061274,-2, -7, -1, 0, -1, -1, 1, -1
1503964061280,-1, 0, -3, -2, -1, 0, 1, 0
1503964061288,2, -4, -3, -1, 0, 0, 1, 4
1503964061303,-11, 3, 1, 0, 0, -1, -4, -5
1503964061311,3, -8, -2, -1, -1, 0, -1, 9
1503964061317,3, 1, -1, -2, 0, -1, 0, 4
1503964061333,1, 5, 1, 1, -2, -1, -1, -1
1503964061342,4, 1, 0, 0, -2, -2, -1, -3
1503964061355,2, -4, -3, -1, -2, -2, -3, -5
1503964061362,2, 3, 0, -1, 0, 0, 0, -1
1503964061378,4, 4, 3, -1, 3, 1, 4, 17
1503964061379,3, 9, 2, 1, 0, 0, -1, -1
1503964061393,3, -4, -5, 1, 1, 0, 2, 0
1503964061400,-3, -3, 1, 0, -2, -1, 0, 0
1503964061409,-2, -7, -1, -2, -2, -1, -3, -7
1503964061423,1, -2, -3, -3, -1, -1, -1, -1
1503964061430,-2, 2, -2, -3, -1, -2, -2, -6
1503964061438,0, -10, -3, -1, 0, -1, 0, -1
1503964061453,-1, 0, 0, 0, -1, -1, -2, -1
1503964061460,4, 8, -1, 0, -1, -1, -2, 1
1503964061468,-5, -2, -1, 0, -1, -1, -2, -4
1503964061483,-1, 3, 4, 1, -1, 0, -1, -1
1503964061490,0, 6, -1, -3, 1, -1, 2, 3
1503964061497,1, -5, -2, -2, -1, -1, -3, -5
1503964061513,-2, -13, 0, 0, -3, 1, 1, -1
1503964061520,1, -1, -3, -2, -2, 1, 1, 5
1503964061528,3, 7, 4, 1, -1, 0, -2, -2
1503964061543,0, 0, 1, -2, 0, -3, -1, 1
1503964061551,-1, 0, -2, -1, -1, -2, -2, -3
1503964061558,-2, -2, -2, -2, -1, 0, 0, 1
1503964061573,-3, -1, -2, 0, -1, -2, 1, 1
1503964061580,-5, 0, 2, 1, 0, -1, -2, -9
1503964061588,3, 10, 1, 1, 0, -1, -1, -3
1503964061603,-4, -15, -2, -3, -2, -1, -2, 0
1503964061612,-2, 4, 2, -1, -2, -1, -1, 3
1503964061618,2, 5, -3, -2, -1, -1, 1, 4
1503964061633,-3, -2, -4, 0, 0, 0, -3, -5
1503964061640,1, -2, 0, 1, 0, -1, -2, -1
1503964061648,-1, 0, -3, -1, -2, 0, -1, -5
1503964061663,0, -6, -6, -3, -1, 1, 1, 6
1503964061671,-4, 3, 4, -1, 0, -1, -3, -5
1503964061678,-1, 8, 2, 2, 0, -1, 0, -3
1503964061693,-2, -3, -3, -2, -2, 0, 2, 1
1503964061700,3, 6, 1, 1, -2, -1, -1, 1
1503964061708,-2, -3, 1, 0, 0, -2, -1, -2
1503964061723,-5, -5, -1, 0, 0, -2, -7, -11
1503964061730,2, -4, -5, -1, 1, 0, 1, 4
1503964061738,-1, 1, 0, 0, 0, -1, -1, 0
1503964061753,-1, -1, 1, -1, 0, -4, -3, -2
1503964061760,0, 6, -2, -1, -1, 0, 2, -1
1503964061768,0, 4, -1, 0, -1, -3, -2, -1
1503964061782,-4, -4, -1, -2, -1, -1, -2, -2
1503964061783,2, 2, -1, 1, -1, -1, 0, -1
1503964061790,1, -2, -1, -2, 1, 2, -1, 0
1503964061797,-1, 1, -2, -2, 0, 2, 0, 0
1503964061813,-2, -5, -2, -1, -2, 0, 1, -3
1503964061820,-5, -6, -4, -1, -1, -1, -1, -6
1503964061828,1, -1, -1, -2, -2, 0, 1, 1
1503964061845,-5, -6, 0, 1, -1, -1, 0, -2
1503964061851,-9, -30, -10, -4, -1, -1, -1, -4
1503964061857,1, -3, -2, -1, -1, -1, 1, 1
1503964061873,2, 9, 4, 2, 1, 1, -3, -2
1503964061881,-3, -6, -2, -2, -1, -2, -3, -2
1503964061888,1, 3, -1, -1, -2, -1, 0, 3
1503964061902,5, 7, 3, -1, 0, 0, 1, 9
1503964061913,3, 3, 1, 1, 0, -1, -1, 1
1503964061918,-2, -3, -2, -2, 0, 1, -1, -6
1503964061933,0, 0, -2, -2, -2, -1, 2, 6
1503964061940,-2, -11, 0, 1, -1, -2, -1, 1
1503964061949,3, 5, 2, -2, 0, 1, 1, -1
1503964061963,-1, 1, 0, -3, -2, -1, -4, -3
1503964061971,-1, -2, -3, 1, -1, -2, -4, -3
1503964061979,0, -2, -2, 0, -1, 0, 1, -3
1503964061993,-3, -1, 0, -1, -1, 0, -2, -4
1503964062000,-3, -2, -3, -1, 0, -3, -3, -3
1503964062008,-1, 2, -1, 0, 1, -1, -1, 1
1503964062023,-3, 2, 2, -1, -1, -1, 0, -6
1503964062031,3, 1, 2, 1, 1, -1, 0, 2
1503964062038,3, 2, 0, -2, 0, 1, 1, 3
1503964062054,-1, 1, -2, -2, 0, 0, 2, 1
1503964062060,3, -11, -4, -1, -3, -1, 1, 6
1503964062068,-1, 5, 3, 0, -1, -2, -2, 0
1503964062083,-4, 5, 1, 0, -3, 0, 0, -3
1503964062090,-1, -3, -3, -1, -3, -2, -2, -3
1503964062105,1, 4, 1, -2, 1, 2, -1, 2
1503964062114,-2, 0, 1, 0, -2, 0, 2, 2
1503964062120,1, -2, -1, 0, -2, 0, 0, 3
1503964062135,-1, -8, 0, -3, -1, 0, 0, 5
1503964062142,-2, 0, -2, 0, -1, -3, -1, -4
1503964062151,1, 6, 3, 0, 0, 0, -3, -4
1503964062165,-1, 1, 0, 1, -1, -2, -6, -3
1503964062173,-3, -6, -3, -1, -2, -1, -2, -1
1503964062181,0, -2, 0, -4, 0, 0, 0, 3
1503964062195,-1, 0, -1, -1, -1, -1, -2, -5
1503964062202,0, -2, 0, -1, -2, -1, 0, -1
1503964062210,-2, -2, 1, -1, 1, 0, 0, -1
1503964062225,-2, -5, -2, -2, -1, 1, 1, -3
1503964062233,-3, 0, -4, 0, -3, 0, 0, 4
1503964062240,-2, 2, 0, 1, -1, -3, -1, 0
1503964062255,1, 9, 3, -1, 0, 0, -1, -4
1503964062263,-3, -6, 2, 3, 0, -2, -4, -4
1503964062270,2, -4, -1, 0, 1, -2, -1, 2
1503964062271,-2, -1, 0, -1, -1, -2, -2, -3
1503964062285,4, 3, 1, -1, 0, 0, 0, -1
1503964062293,-4, -1, -2, 1, 0, 0, -5, -7
1503964062300,4, 0, -1, -1, -2, -1, 0, 3
1503964062315,5, -6, -4, -3, 2, 3, 5, 15
1503964062324,1, -6, -2, -2, -1, 1, 1, 5
1503964062325,0, 3, 2, 0, 0, -1, -1, -4
1503964062331,-2, -2, 1, -1, 0, -1, -3, -4
1503964062345,1, 0, -3, -4, -2, 0, 2, 5
1503964062353,-3, -13, -4, 1, -2, -1, 0, -2
1503964062360,-6, -8, -5, -2, 0, -2, -2, -5
1503964062375,0, 4, 0, -2, -3, 0, -4, -4
1503964062383,2, -10, 0, 0, 0, 0, -1, 4
1503964062391,0, 1, -1, 0, 0, -1, 3, 3
1503964062405,-1, 2, -2, 1, 0, 1, 3, 1
1503964062416,-5, -1, -1, -2, -3, -1, -4, -7
1503964062420,-1, 4, -1, 2, 0, -2, 0, -3
1503964062435,1, -3, -2, 1, 1, -2, -1, 2
1503964062442,-1, -1, -1, -1, -2, 2, -2, -1
1503964062451,2, 5, 2, 1, -1, -2, 1, -2
1503964062465,-1, -4, -3, -2, -1, -1, 1, 5
1503964062473,-3, -2, -3, -2, -1, -1, -1, -3
1503964062480,0, 3, 2, 0, 1, 0, -1, 1
1503964062495,6, -11, -2, 0, 0, 1, 1, 15
1503964062502,-3, -1, -1, -1, -1, 0, -2, -3
1503964062511,1, 5, 1, -1, -3, 1, -1, -3
1503964062526,-6, -3, 1, 4, 1, -2, -4, -12
1503964062533,-2, -2, -3, -1, -2, 0, 1, -3
1503964062540,1, 11, 1, -3, -2, 0, 0, 0
1503964062555,2, 3, 2, 0, 0, -3, -3, 1
1503964062562,-8, -18, -6, -2, -3, -2, -2, -2
1503964062570,-1, -1, -1, -1, -2, 1, 2, 6
1503964062585,1, 1, -2, -1, -1, -1, 0, 3
1503964062593,-1, 1, -3, -3, -2, -2, -3, -5
1503964062600,3, 2, 0, 0, -1, -1, 2, 3
1503964062617,1, 1, -3, 0, -1, -3, -3, -6
1503964062622,0, 0, 1, 0, -2, 0, -2, 3
1503964062638,-1, 6, 4, 1, 0, 0, -1, -5
1503964062645,-5, -17, -4, -2, 0, -3, -2, -6
1503964062661,5, 6, -1, 0, -1, 0, 0, 2
1503964062675,-4, -6, -1, -2, 0, 1, 0, 1
1503964062684,-2, 4, 3, 0, 1, 0, 0, -1
1503964062690,-3, -1, -3, -1, -1, 0, -1, -6
1503964062705,-3, 0, 0, -2, -1, -1, 1, -1
1503964062713,-1, -4, -3, -4, 0, -1, 0, 0
1503964062720,-1, -2, -4, -3, -3, -1, -1, -2
1503964062735,-5, -8, -2, 1, -2, -2, -2, -5
1503964062742,1, 4, 0, 0, -1, 1, 0, 2
1503964062753,-5, 4, 1, 0, -1, -2, -3, -8
1503964062765,-3, -3, -3, -1, -1, 0, -2, -5
1503964062773,-5, -3, -4, -3, -1, -1, 0, 2
1503964062780,-2, 1, 0, 0, -1, 0, -2, -2
1503964062795,4, -7, -2, -2, -2, -2, 0, 3
1503964062802,-1, 4, 0, 0, -3, -1, -1, 0
1503964062819,-4, -3, 0, 2, 0, -2, -3, 1
1503964062825,1, -2, -2, 0, 1, 1, -1, 0
1503964062833,1, 2, 3, 0, -1, 1, 1, 4
1503964062840,-2, 4, 2, 0, 0, 0, 1, -2
1503964062855,1, 0, 0, 0, -1, -3, -1, -1
1503964062863,0, -3, -3, -2, -2, 0, -1, -4
1503964062871,3, 0, -4, -1, -1, 0, -1, 2
1503964062887,0, 0, 0, -1, 0, -1, -1, 3
1503964062893,-2, 1, 2, 0, 0, -1, -3, -4
1503964062900,-2, -2, -2, 2, -1, 0, 2, 2
1503964062925,4, 2, -1, -2, -2, 0, 0, 6
1503964062930,-3, -1, 0, -1, -1, -3, -2, -5
1503964062945,-5, 1, -2, -2, -2, -2, -5, -11
1503964062953,-1, -1, -1, -1, -2, 1, -1, 1
1503964062960,0, -3, 1, -1, -1, -2, -1, -1
1503964062975,-3, -1, 1, 1, -3, -1, 1, -3
1503964062982,5, 3, 1, 0, 0, 0, 0, 5
1503964062991,4, 0, -1, 1, 1, 0, -2, 1
1503964063005,0, -1, 1, 0, 1, -1, -1, 0
1503964063013,-1, 1, -3, -4, -2, -1, 1, 0
1503964063027,-8, -15, -2, 0, 0, -1, -2, -4
1503964063035,0, -5, -3, -3, -2, 2, -1, 2
1503964063042,1, 4, 0, -1, 0, -1, 0, -1
1503964063059,0, -1, -1, -1, 1, 1, 1, 2
1503964063065,5, 1, -2, 0, -2, 1, 1, 6
1503964063073,-1, -1, -3, -1, 1, 0, 2, 7
1503964063088,-1, 2, 1, -1, 0, 1, -1, -1
1503964063095,-1, -3, -1, 2, -1, -1, -1, -1
1503964063102,-2, -4, -2, -2, -1, -2, 1, 0
1503964063117,-1, -2, -3, 1, -2, 0, -2, 0
1503964063131,-2, 1, -2, -1, -2, -1, -3, -4
1503964063134,0, 1, 3, -1, 0, -1, 0, -4
1503964063147,-2, -1, 0, -3, -1, -2, -1, -9
1503964063155,-1, 2, 1, 0, 1, -1, -2, 1
1503964063163,-1, 2, -2, -1, -1, -1, -2, -1
1503964063177,0, -1, -4, -3, -2, -1, 1, -1
1503964063185,0, -1, 0, 0, 0, 0, 0, 0
1503964063193,0, 0, 0, -1, -1, 1, 1, -1
1503964063207,0, 4, -1, 0, -1, -3, -3, -4
1503964063215,1, -5, -1, -1, -1, 0, -3, -2
1503964063223,-5, -7, -3, -1, -2, -1, -2, -4
1503964063237,-2, 0, 0, 0, -1, -3, 0, 0
1503964063245,0, -2, -3, 0, 0, -1, 0, 2
1503964063256,-4, -8, -3, -4, -1, -2, -1, -2
1503964063267,-1, -1, 1, 1, 0, 0, 0, 2
1503964063275,1, 8, 1, -3, -2, -1, -2, -5
1503964063282,0, -2, -2, -1, -1, -1, -1, 0
1503964063298,-2, 0, 0, 0, -1, -2, -3, -1
1503964063305,2, 3, 1, -1, 0, -1, -1, -2
1503964063313,-3, -3, -2, -1, -2, -2, 1, -5
1503964063327,3, 9, 2, 0, 0, -2, 0, 4
1503964063335,-4, -14, -4, -1, 0, 0, -1, -10
1503964063342,-4, -5, 0, -2, -1, 0, 0, -4
1503964063358,1, 6, 3, 2, -1, -1, 1, 4
1503964063365,-7, -11, -6, -2, -2, -2, -2, -9
1503964063373,0, 1, -2, -1, 0, 0, 0, 2
1503964063387,1, 2, 0, 0, -1, -1, 0, -2
1503964063395,1, 3, 1, -1, -1, -2, -3, -3
1503964063402,2, 3, 2, -1, 0, -1, -1, 4
1503964063417,-4, -5, -2, 0, 0, -1, -3, -2
1503964063425,0, 4, -4, -1, -2, 1, 1, -1
1503964063440,0, 0, -4, -2, -3, -2, 0, 0
1503964063447,3, -3, -1, 3, 0, 0, -1, 4
1503964063456,-3, 1, -3, 1, 0, -2, -2, 0
1503964063462,0, 3, 0, -2, -2, -2, -5, -1
1503964063477,1, 2, 2, 0, -1, 0, -1, 2
1503964063485,0, -3, -1, -1, -1, 0, -1, -3
1503964063494,2, -2, -2, -1, -2, 1, 2, 1
1503964063507,-2, -4, -1, -1, -1, -1, 3, -2
1503964063515,2, 2, -1, -1, 0, 0, -2, 5
1503964063523,-5, 1, -2, 0, 0, -3, -2, -1
1503964063537,-3, 2, 0, 1, -2, -2, 1, -3
1503964063545,-2, 8, 4, 1, 0, 1, 1, 6
1503964063553,-4, -7, -3, -3, 0, 0, -1, -10
1503964063568,0, 0, 0, 0, 0, -2, 0, 2
1503964063575,2, -2, 1, 0, -1, 0, -3, -1
1503964063582,0, -5, -2, -1, -1, 0, -2, -1
1503964063598,3, 8, 1, -2, 0, -2, 0, 1
1503964063605,-3, -9, -2, -2, -1, 1, -3, -1
1503964063613,1, 2, -3, -3, -1, -1, 0, 7
1503964063628,2, -8, -5, -3, -1, 0, 1, -2
1503964063635,1, 1, 3, 1, -1, 0, 1, 4
1503964063649,-1, -2, 2, 1, -1, -3, -2, 2
1503964063658,0, -5, -4, -1, 0, -3, -1, 1
1503964063665,-1, 3, 2, 3, -1, -2, 0, -2
1503964063673,-6, -17, 0, -1, -1, 0, -2, -3
1503964063687,2, 5, 1, -1, -1, -2, 0, -1
1503964063696,-4, 2, -3, -1, -3, 0, -1, 3
1503964063702,0, 0, 0, -1, -1, -1, -3, -4
1503964063717,2, 3, 4, 1, 1, 1, -1, -2
1503964063725,-3, 2, -2, -1, -3, -2, -1, -4
1503964063734,0, -1, -4, -2, 0, -1, 3, -1
1503964063748,2, 6, 1, -2, -2, -1, -2, -3
1503964063756,-4, -9, -4, -1, -1, -1, -2, -8
1503964063762,-2, -1, -3, -1, -2, 0, -2, 1
1503964063777,-5, 4, 0, 0, -2, -1, -3, -8
1503964063785,-1, -13, -3, -4, 0, 2, 3, 0
1503964063793,2, 1, -1, -1, -3, -1, -2, 2
1503964063807,-2, 2, -1, -4, 0, -3, -1, -3
1503964063815,-2, 1, 3, 1, 1, -1, -1, -3
1503964063822,-1, 7, 2, 0, -1, 0, 1, 0
1503964063837,3, -6, -4, -3, -1, 0, 0, 1
1503964063845,-4, -7, -1, -1, 0, -2, -2, -5
1503964063853,3, 1, 1, -1, -2, 0, 0, 1
1503964063868,8, -1, -4, -2, -1, 1, 3, 19
1503964063875,-1, 1, -1, -1, 0, 0, -3, 0
1503964063882,-3, -1, 0, 1, -1, -2, -1, 1
1503964063897,-3, 3, -1, 1, 0, 0, -3, -4
1503964063912,-1, 3, 0, 0, -2, -1, -1, -7
1503964063913,-13, -11, -2, -1, 0, -1, 1, -5
1503964063927,-1, -3, -2, 0, -2, 0, -1, -4
1503964063935,4, 3, 2, 0, -2, 0, 0, 1
1503964063949,-2, -5, -2, 0, 1, 1, -2, 2
1503964063958,-1, 5, 0, -3, -1, -1, -1, 1
1503964063966,-1, -1, 1, 1, -2, -1, -4, -3
1503964063980,-2, 3, 0, 0, 0, -4, -3, -5
1503964063987,0, -3, -1, 0, 1, 0, 1, 4
1503964063995,-2, -4, -1, -2, -1, -1, -2, -9
1503964064009,-2, -3, -2, -2, 0, -2, -5, -10
1503964064017,3, 3, -2, 0, -1, -1, 0, 5
1503964064028,-2, -1, 0, -1, -2, -1, 1, -5
1503964064040,0, 0, -2, -2, -2, -1, -2, -3
1503964064047,0, 4, 1, -1, -1, -1, 1, 2
1503964064055,2, -1, -1, 0, -1, 1, 2, 6
1503964064069,1, 1, 0, -1, -2, 0, -1, -1
1503964064077,0, 3, 3, 0, 0, 0, -1, -5
1503964064085,4, 2, 0, -1, -2, -2, 2, 5
1503964064100,4, 8, 0, 0, -1, -1, -1, -3
1503964064107,2, -4, 0, 0, -1, -3, -5, 1
1503964064115,2, 2, 0, -1, -2, 0, 0, 7
1503964064129,-8, -15, -4, -1, 0, -2, -1, -6
1503964064138,-3, -3, -3, -1, 0, 0, -1, -3
1503964064145,5, 3, 0, 0, 0, 2, 2, 9
1503964064161,-3, 1, 0, 1, -1, -6, -1, 0
1503964064168,0, 2, 0, -1, -2, -1, -2, -4
1503964064176,1, -8, -3, -1, -1, -1, 2, 1
1503964064189,-10, -2, 0, -3, -2, 7, 1, -3
1503964064198,-3, -4, -1, 1, 0, 0, -3, -4
1503964064205,31, 7, 1, 1, 1, -4, -2, 6
1503964064220,4, -4, -3, 0, -2, 0, 25, -5
1503964064228,-31, -11, -3, -3, -1, -4, -1, -8
1503964064236,27, 3, 2, 0, -2, -2, -6, 6
1503964064249,-3, -1, -2, 0, -2, -3, 1, 0
1503964064257,-11, -1, 3, 0, 0, 1, -6, 2
1503964064265,-3, -3, -11, -5, -2, 2, -6, -6
1503964064280,-12, 4, 2, 3, 4, 17, 4, 2
1503964064287,-25, 5, -2, 3, 0, -2, 2, -3
1503964064297,-14, -11, -1, -9, -1, -4, -4, -2
1503964064309,34, 3, -1, 7, 3, 1, -6, 5
1503964064317,-3, -4, -2, -10, -15, -4, -5, 0
1503964064325,12, -4, 28, 1, -4, -4, -2, -3
1503964064340,15, 2, 0, 13, 10, -1, -10, 3
1503964064347,-25, 0, -8, -3, 1, 0, 1, -2
1503964064355,-7, -1, -9, -9, -5, -2, 0, -3
1503964064369,-8, 0, -11, -11, -7, -1, 3, -1
1503964064384,22, 9, 15, 36, 7, 9, 4, 1
1503964064386,12, -2, -10, -17, 1, 2, 0, -2
1503964064400,16, 3, 0, 4, 27, 4, 14, 3
1503964064407,3, 11, 28, 27, -31, -4, 0, 2
1503964064408,-3, -2, 1, 8, -2, -2, 2, 0
1503964064415,-9, -12, -30, -33, -5, -8, -7, -7
1503964064431,-7, -9, 6, 12, -1, -4, 0, -2
1503964064438,-80, -1, 27, 23, 12, 13, 6, 0
1503964064445,-17, 6, 6, -5, -7, 7, -9, 0
1503964064460,35, 2, -19, -13, 3, -5, -2, 6
1503964064468,14, -11, -21, -19, 7, 13, -15, -10
1503964064475,18, 3, 7, -12, -18, -11, -8, -1
1503964064489,23, -3, 0, 7, -4, -7, 0, 5
1503964064498,-61, -5, -4, -13, -7, 5, 0, -4
1503964064506,47, 15, -7, 14, 8, -3, 8, 10
1503964064520,31, 0, -8, -17, 22, -5, -2, -4
1503964064527,-34, -11, 10, 24, -12, 3, 10, -3
1503964064535,7, 5, 29, 5, -5, 1, -1, 1
1503964064536,6, -12, -21, -4, -10, -9, -10, -4
1503964064549,-8, -14, -11, -21, -14, -13, -5, -3
1503964064557,-3, -20, 24, 25, -32, -23, -3, -4
1503964064566,20, -14, 13, 6, 90, 42, 8, 1
1503964064580,-20, 22, 3, -13, 7, -12, -2, -7
1503964064587,-4, 70, 7, -11, -5, -23, -3, -2
1503964064596,23, -26, 11, 18, -39, -4, 1, 2
1503964064609,-16, -62, 15, -6, -3, 0, -3, -9
1503964064617,7, 49, 6, 2, -20, -5, -8, -3
1503964064625,2, -4, -33, -16, -19, 4, 4, 0
1503964064640,1, 2, 14, 5, 16, 16, 4, 3
1503964064647,-6, -6, -26, -21, -41, -62, -6, 0
1503964064655,6, 4, 16, 13, -20, 27, 3, 5
1503964064669,-10, -40, -27, -2, -1, 31, 10, 3
1503964064677,12, 51, -2, -16, -27, -26, -1, 3
1503964064686,6, 29, 9, 18, 8, -11, -2, 1
1503964064700,-11, -31, 3, 4, 53, 57, 11, -3
1503964064707,14, 6, -13, -28, -30, -87, -5, 4
1503964064708,-7, -8, -8, 2, -27, -24, -24, -5
1503964064715,18, 17, -15, 0, 19, 15, -1, 4
1503964064729,-10, -30, 4, -4, -1, 25, 9, 2
1503964064737,1, 19, -40, -11, 19, 21, 8, 2
1503964064745,5, 32, 21, 7, 40, 10, 1, 1
1503964064760,-2, 33, -3, -8, 20, 9, 1, -2
1503964064768,-16, -32, 26, 15, 1, 23, -2, -10
1503964064775,-21, -70, -14, -15, -18, 5, -12, -6
1503964064789,2, 63, 21, -1, -3, 1, -9, -2
1503964064799,-2, -70, -15, -5, -13, -28, -6, -7
1503964064800,3, 19, 28, 10, 52, 61, 19, 8
1503964064806,-1, 4, -16, -1, -3, 55, -24, -15
1503964064820,-46, -73, 23, 6, 7, 43, -4, -16
1503964064827,12, -12, 0, 0, -32, -85, 8, 12
1503964064836,12, 11, -10, -1, 18, 6, -10, -2
1503964064849,-16, -31, 5, -3, -75, -73, -14, -3
1503964064857,10, -19, -29, 1, 43, 36, 10, 7
1503964064872,40, 120, -12, -3, -45, 18, 17, 12
1503964064880,19, 35, 17, 3, -32, -69, -1, 10
1503964064887,-19, 3, -36, -14, -23, -104, -26, -23
1503964064903,-2, 63, 3, -4, -79, -117, 7, -1
1503964064909,36, 61, -11, -2, -17, -60, 9, 16
1503964064917,-5, -37, -32, -8, 5, -57, -37, -24
1503964064933,-7, 86, 3, -9, -75, -77, -9, -15
1503964064934,-16, -101, 17, 6, 39, 111, -12, -16
1503964064940,-17, -128, -31, 15, 81, 90, 68, 36
1503964064947,-11, 79, 93, 10, -14, -45, -57, -16
1503964064963,24, 32, -5, -2, 51, 78, 10, 3
1503964064977,-1, -28, -15, 4, 25, -30, 69, 56
1503964064979,-12, -3, -5, -15, -81, -41, -62, -93
1503964064992,6, 35, -28, 8, 114, 118, 57, 36
1503964065000,-2, -23, -24, -11, -107, -126, -103, -40
1503964065008,-6, -13, 10, -1, 27, 45, -5, -8
1503964065022,11, -2, 35, 2, 39, 42, 38, 45
1503964065029,-2, -15, -14, -6, 18, 21, -8, -22
1503964065037,-5, 21, 14, -7, 11, -1, 13, 12
1503964065051,-10, -14, 0, 28, 54, 30, 23, -3
1503964065060,1, 17, 0, -1, 26, 35, 8, 11
1503964065067,-11, -3, -14, -11, -36, -25, -13, -4
1503964065082,-1, 21, 3, 1, -37, -25, 3, 9
1503964065089,-7, -11, 9, -5, -24, -5, -29, -12
1503964065097,-2, -29, -4, -3, -11, -15, 0, 5
1503964065112,0, -13, -9, -6, -13, 3, 3, 9
1503964065120,3, 29, 11, 1, -4, -10, -14, 4
1503964065127,0, -2, -2, -3, -20, -5, 5, -6
1503964065143,-2, 9, -5, -5, -13, -4, 32, 4
1503964065149,0, -7, -7, -5, 1, 8, 8, -5
1503964065157,-5, 5, -1, -6, 15, 10, 0, 4
1503964065172,2, 0, 4, 3, -16, 37, 9, -5
1503964065180,-3, 9, 1, -4, -23, -18, 1, -1
1503964065194,-1, -12, -8, -4, 4, -6, -4, -3
1503964065202,-2, -4, -8, -3, 1, 12, 12, 2
1503964065203,0, 2, 11, 3, -7, -15, 1, -3
1503964065217,2, 0, 2, -4, -2, -7, 11, 4
1503964065219,-4, 1, -6, 7, -4, -11, -6, -6
1503964065232,-1, -1, -4, -4, -7, -10, -3, -2
1503964065240,0, 0, 3, -4, 5, 7, 3, 2
1503964065247,1, -4, -8, 26, -27, -40, -9, -1
1503964065263,-1, 1, -3, 10, 5, 7, 1, 3
1503964065269,-14, -2, -3, -14, 1, -4, 5, 0
1503964065278,-6, -2, -4, 1, 9, 9, -4, 1
1503964065292,17, 3, -2, -6, 7, 6, 2, 0
1503964065300,2, 0, 1, 4, -4, 4, 2, -3
1503964065307,5, -2, -4, -4, 4, 2, 2, -1
1503964065322,17, -2, 14, 3, -7, -6, -7, -1
1503964065329,0, 1, 1, -5, 11, 1, 1, 1
1503964065337,-9, -1, -7, -7, -6, -4, 8, -3
1503964065352,-1, -5, -2, 2, 1, 5, -8, -2
1503964065360,-6, 4, 1, -2, -8, 25, 7, -2
1503964065369,-10, 1, 4, 6, 5, -1, -14, -5
1503964065382,-2, -6, -20, -18, -7, -8, 4, 12
1503964065389,5, 14, 36, 23, -2, 0, -9, 4
1503964065397,0, -1, -3, 9, 9, -6, -2, -9
1503964065412,-4, -18, -30, -16, -9, -9, -2, -2
1503964065420,-2, 3, -9, 10, -1, -7, -6, 4
1503964065427,1, 35, 2, -6, 0, 7, 17, 21
1503964065442,-21, -24, -8, -9, -1, -10, -29, -43
1503964065449,-20, -7, -7, -7, 1, -1, -2, -8
1503964065457,9, 8, 14, 7, 1, -12, 9, 7
1503964065472,6, -10, -5, -10, -1, -4, 0, -5
1503964065480,8, 10, 3, 7, -2, -6, 7, 6
1503964065487,-3, -4, -17, -20, 7, 5, 3, 0
1503964065503,5, -2, -10, 9, 8, 7, -3, 4
1503964065509,3, 25, -6, -3, -5, -3, -6, -1
1503964065518,-9, -41, -5, -5, -5, 0, 4, -1
1503964065531,-1, 15, -26, -3, 0, -4, 4, -3
1503964065532,-2, -25, 7, -5, -5, -1, -4, 1
1503964065540,14, 6, 7, 0, -1, 1, 18, 36
1503964065547,-16, -7, 2, 6, -3, -3, -11, -38
1503964065562,3, 18, -11, -7, 0, -1, -1, -10
1503964065571,-19, -94, -25, 22, 2, 5, 5, 3
1503964065578,-14, 14, 28, -2, -1, 1, -6, -2
1503964065592,-8, 47, -3, 2, -4, -1, -2, -1
1503964065600,17, -51, -29, -9, -5, -2, 2, -3
1503964065607,17, -3, 6, -8, -3, -4, -4, -33
1503964065622,-1, 35, 13, 3, 2, -1, -1, -2
1503964065629,10, 4, -22, 0, -8, -1, 9, 25
1503964065639,-6, 18, 7, -10, 1, 3, 0, 0
1503964065652,12, 74, 19, -10, 0, 1, 4, 35
1503964065660,-6, 14, 25, 13, 5, -2, -20, -30
1503964065668,6, -28, -12, -4, -3, -5, -9, -14
1503964065682,28, -11, -4, -5, -4, 0, 0, 33
1503964065689,4, 9, 24, 7, 3, 0, 0, 13
1503964065699,-4, -1, -7, -2, 0, -5, -6, -3
1503964065712,0, -15, -12, -4, 0, 2, 2, -14
1503964065720,-12, -4, -13, -1, -10, -19, 1, -2
1503964065727,-67, 6, 15, 9, 6, -2, 2, -3
1503964065743,7, 14, -17, -15, 7, -10, -16, 3
1503964065749,15, -3, 10, 8, -1, 2, 5, 3
1503964065757,-8, -3, -7, -4, 3, 20, 11, -8
1503964065774,4, 6, -3, -11, -1, 9, 8, 8
1503964065781,-39, -16, 0, 4, -5, -2, 2, -1
1503964065787,-6, -48, -3, 9, -3, -1, -18, 14
1503964065802,4, 2, -8, -2, -6, -4, 1, -9
1503964065809,12, -8, -14, -1, 2, -1, -13, 1
1503964065825,3, 3, 7, -4, 2, -1, 15, 40
1503964065832,27, -30, -11, 7, -2, -3, 2, 33
1503964065840,5, 6, -6, 2, -3, 0, -8, -2
1503964065854,-16, -1, -11, -13, -4, -4, 6, -19
1503964065862,21, 8, 21, -1, 2, 3, -2, -15
1503964065869,-38, 2, 2, -4, -4, -1, -6, -56
1503964065885,3, -4, -3, 10, -6, 6, 4, 13
1503964065892,18, -43, -13, -6, -2, -9, -8, -8
1503964065900,-5, -18, -13, -13, -2, 0, -9, -20
1503964065915,60, 40, 15, 3, 1, 1, 4, 38
1503964065922,-4, -9, -1, 1, -2, -4, 5, 5
1503964065929,-9, 7, 30, 6, -2, -3, 10, 3
1503964065945,-21, 16, 19, 7, 0, -1, -1, 6
1503964065952,-6, 4, -11, -14, -4, -2, 1, 12
1503964065960,20, -13, 11, 11, 3, 4, 6, 18
1503964065975,13, 3, -7, -6, -1, 2, 3, -8
1503964065982,15, 4, -5, 10, 0, 0, -3, 20
1503964065990,-39, 7, -3, -1, -5, -7, -5, -3
1503964066005,-6, -1, 44, -9, 0, 4, 5, -10
1503964066012,-28, 14, 20, 8, 4, -17, -23, -49
1503964066020,-9, -5, -18, -17, -4, -8, -8, -21
1503964066034,53, 9, 3, -4, 1, 9, 15, 19
1503964066042,-11, -16, -19, -6, -1, 4, -3, -9
1503964066050,0, -2, -10, 10, -1, 3, -3, 4
1503964066065,-6, 10, 7, 21, 4, 0, 1, -19
1503964066072,-2, -1, -12, -25, -7, 0, -2, -1
1503964066080,5, 10, 20, 26, 0, -4, 1, 16
1503964066094,-7, -2, 14, 4, 0, 1, -4, -10
1503964066102,8, 4, -17, -12, -2, -2, -12, -2
1503964066110,-1, 1, 12, 1, -6, -11, -10, 2
1503964066125,-12, -7, -18, -7, 0, -5, -3, -1
1503964066132,18, 12, -23, -11, 0, 2, 13, -5
1503964066143,-20, -1, -4, 6, -1, 1, -1, -12
1503964066155,9, 9, -9, -3, -1, 1, 0, 9
1503964066162,-2, 1, 3, 12, 1, 0, 2, 1
1503964066178,-22, -11, 20, 4, 1, 1, 1, -3
1503964066186,2, 0, -14, -25, -6, -8, -1, -7
1503964066193,1, 9, 39, 18, 5, 2, -8, 0
1503964066200,-7, 6, -1, -1, 4, -3, 0, 14
1503964066216,6, -3, -14, -6, -3, 3, -4, -13
1503964066222,23, -7, -16, 1, -2, -1, -2, -5
1503964066238,4, -4, -6, 5, 0, -1, 14, 6
1503964066247,11, 3, -3, -16, -4, 0, -4, -8
1503964066253,-7, -5, 17, -9, 2, 1, -6, 2
1503964066260,-7, 6, 23, 6, 2, 0, 1, -6
1503964066278,-13, -4, -24, -12, -4, 3, 2, 7
1503964066282,3, -3, 2, 3, -2, -3, 12, -1
1503964066283,-16, -5, 5, 1, 2, 4, 7, 10
1503964066298,-1, -6, -27, -6, -6, -7, -10, -4
1503964066305,-11, -21, -8, 1, -3, 0, -18, -8
1503964066313,4, 26, -7, 1, -5, -29, -5, 8
1503964066320,-5, 3, -2, -3, -2, 3, 0, -11
1503964066335,-4, -13, 5, -1, 6, 6, 4, 0
1503964066343,17, 1, -12, -2, 1, 3, 13, 5
1503964066358,0, -3, -12, -1, 2, 5, 6, 4
1503964066365,-4, 1, -9, -7, -11, -10, -10, 1
1503964066373,-15, -12, -3, -7, -11, 1, 7, -17
1503964066381,5, 11, 17, 15, 2, -19, -7, 6
1503964066395,4, 1, 5, 13, 2, -3, 16, 10
1503964066402,-10, -3, 5, -1, 2, 12, -2, -26
1503964066418,7, -11, 6, 15, 4, 10, -3, -8
1503964066425,-23, -6, 8, 4, -1, 2, 4, 11
1503964066433,19, 12, 12, 9, 38, 13, 11, 9
1503964066440,14, -9, -23, -19, -23, -10, -32, -5
1503964066455,-53, -17, 11, 1, 1, 0, 1, 1
1503964066478,-8, 3, -3, -2, -11, 0, -10, 3
1503964066485,2, -5, -4, -5, -6, -1, 13, -4
1503964066493,2, -6, -9, -9, -12, -2, -8, -15
1503964066500,7, 9, 15, 7, 10, 2, -2, 6
1503964066516,-7, -2, 1, 2, -3, 3, 0, -4
1503964066522,-6, -8, -12, -13, -4, -2, 6, 24
1503964066538,15, -4, -5, 5, -5, -8, -25, -30
1503964066545,1, -1, 2, -5, -2, 34, 3, -1
1503964066553,9, 9, 4, -1, 48, -5, -14, 7
1503964066560,0, 2, -1, 1, 10, 4, 7, -1
1503964066578,-1, -2, -10, -8, -8, 0, -8, 1
1503964066583,-10, -4, -7, 1, -2, -12, 4, -1
1503964066598,4, 14, 12, -1, -13, -3, 3, 5
1503964066605,5, 8, 29, 10, -5, -6, -9, -11
1503964066615,-6, -7, -3, -8, -11, 4, 14, 6
1503964066621,-4, -11, -3, 3, 8, -4, -5, -9
1503964066635,-16, -8, -3, 2, -10, -2, 6, -4
1503964066646,8, 7, -6, 1, 0, -4, -1, -3
1503964066658,7, 3, -6, -3, -10, 6, -3, -9
1503964066665,0, -1, -5, -4, 0, 2, -4, -13
1503964066673,5, 4, 21, 14, 3, -1, -1, -10
1503964066680,-4, -6, -3, -3, 0, -1, 5, 8
1503964066695,17, 5, -12, -10, -11, 1, 1, 10
1503964066702,-9, 1, 3, -1, -1, -3, 2, 2
1503964066719,7, 1, -1, -5, 1, 0, 2, 6
1503964066725,2, -4, -7, -7, 2, 1, -8, -2
1503964066733,-12, -10, 4, -2, -4, -1, 1, -7
1503964066748,11, 9, -5, -3, -2, -6, -2, -3
1503964066755,11, 5, -6, 0, 1, 3, 2, 0
1503964066762,3, 5, 3, -1, 2, -1, -1, 0
1503964066780,-2, 3, 3, 1, -3, -5, 1, 8
1503964066785,3, -4, -8, -2, 0, 1, 1, -7
1503964066793,-14, 4, 0, -2, -5, -4, -7, -1
1503964066807,-5, 4, 9, 2, -4, -6, 4, 42
1503964066815,-3, 17, 4, 4, 1, -3, -11, 18
1503964066823,-7, 1, -8, -5, -2, -1, 2, 1
1503964066838,-2, -7, -11, -2, -5, -5, -5, 0
1503964066847,-9, -7, 2, 4, 2, 2, 6, -7
1503964066853,9, -3, -3, -4, 3, 2, 8, -20
1503964066867,12, -11, -7, -4, -2, 4, 0, -35
1503964066875,8, -3, -2, -2, -1, -7, -6, -1
1503964066882,-2, -19, -17, 0, -2, -3, -3, 3
1503964066898,8, 6, 16, 0, -1, 5, 10, 27
1503964066905,4, 11, 2, 1, -2, -2, -6, -3
1503964066914,-15, -11, -17, -5, -4, 0, 1, -8
1503964066927,-3, -3, 10, 1, 1, -3, -1, 2
1503964066935,1, -7, 0, 0, 0, 2, 4, 4
1503964066942,-6, 2, 10, 3, 0, -2, -3, 2
1503964066958,-2, 0, 6, -1, 0, 1, -2, -7
1503964066965,8, -1, -6, -4, -1, 0, -2, 4
1503964066973,-4, -8, -6, -1, 2, 0, -2, -19
1503964066987,8, 7, 6, 4, 0, 1, 5, 16
1503964066995,0, -3, -6, 2, 2, -2, -8, -25
1503964067002,-10, -3, -12, -7, -6, -4, -5, -21
1503964067018,0, 15, 4, 0, 2, -1, 1, 11
1503964067025,-9, 0, 4, 6, 1, 1, 5, 8
1503964067033,-13, -14, -5, -3, -3, -7, -24, -10
1503964067048,5, -9, -1, -5, -12, 2, -6, -1
1503964067055,4, -3, -2, 1, -7, 2, 13, 21
1503964067062,-4, -8, -6, -3, -1, -5, 4, -12
1503964067078,-10, -2, 13, 13, 4, 1, 1, -10
1503964067085,10, 10, 5, 4, 3, 11, 5, 4
1503964067100,-8, -6, -7, -6, -12, -9, -5, -36
1503964067107,-24, -3, -7, -5, -1, -11, -13, -11
1503964067116,12, -2, -5, -1, -1, 2, 1, 15
1503964067122,6, 0, -1, 3, 5, 3, -3, 2
1503964067138,4, 15, 3, 2, 3, 7, 1, 14
1503964067145,-1, 2, 1, -1, 0, -2, -3, -6
1503964067153,-7, -6, -7, -1, 1, -4, -5, 13
1503964067167,-6, -2, 4, 7, 2, -3, 5, 6
1503964067175,17, 11, -1, -6, -2, 0, 1, 13
1503964067182,-11, -9, -2, -3, -3, -8, -2, -5
1503964067198,-18, -13, -2, -5, 0, -2, 1, 0
1503964067205,-1, 0, 0, 1, 0, 0, -5, -19
1503964067213,10, 1, -3, -1, 1, 12, 4, 9
1503964067227,1, 17, 2, -8, 0, 2, -2, -1
1503964067235,15, 4, 0, 3, -3, -14, -17, -11
1503964067242,10, 0, -4, -2, -1, -1, -2, 20
1503964067258,-15, -5, -8, -11, 2, 1, 19, -6
1503964067265,-3, -4, 3, 5, 1, 0, 3, -1
1503964067273,-8, -12, -3, 0, -4, 0, 20, -2
1503964067287,7, 0, -2, -2, 0, 4, -1, -3
1503964067295,-8, -1, 7, -1, 2, 1, -5, 4
1503964067302,-5, -1, -4, -1, -2, -4, -1, 1
1503964067319,8, -4, -4, -2, -1, -1, -5, -7
1503964067325,1, 6, 0, 0, -6, -20, 1, 11
1503964067333,8, 0, 1, 2, 0, -9, -14, -39
1503964067348,-9, -7, -3, -5, 0, 4, -6, -11
1503964067356,3, 5, 12, 10, -4, 0, 12, 23
1503964067362,-6, 1, -4, -1, 0, 4, 5, 15
1503964067378,-6, -8, -6, -11, -1, 3, -5, -18
1503964067385,25, 13, 2, 4, 0, 1, 2, 8
1503964067393,16, 2, -3, 2, 2, 10, -4, 11
1503964067407,-59, -14, -8, -9, -5, 3, 7, -41
1503964067417,-2, 8, 10, 2, 4, 8, 2, 34
1503964067422,8, -2, 3, 3, 2, 2, -9, 23
1503964067438,-28, 1, -9, -15, -3, 0, 5, -5
1503964067445,-3, -2, 17, 16, -2, -13, -13, 3
1503964067453,5, -1, 2, 3, -1, -9, 5, -1
1503964067467,19, -6, -12, -8, -1, 3, -8, -1
1503964067475,0, -3, -3, -4, -4, -15, -4, 4
1503964067485,30, 4, -1, -8, 2, 7, -5, -11
1503964067498,5, -2, 4, 3, -13, -7, -8, -28
1503964067505,-1, -6, -1, 17, 3, 3, 13, 17
1503964067513,3, 6, -5, 3, 1, 4, -4, -32
1503964067527,5, -10, -12, -8, -2, 0, 3, -16
1503964067535,-1, -1, 11, 1, 4, 4, -8, 23
1503964067542,-9, -8, -12, -11, -2, 2, 4, -25
1503964067558,13, 4, -8, -1, -1, 0, -2, 3
1503964067565,5, -3, -1, -1, -5, -5, 19, -3
1503964067573,-12, -4, -4, -2, 1, 1, 2, -4
1503964067588,25, 9, 5, -2, -1, 5, 1, 3
1503964067595,-20, -20, -6, 2, 12, 13, -4, 5
1503964067602,-12, -14, -5, -4, -3, 0, -4, -16
1503964067619,10, 8, 6, 2, -1, -1, -14, 18
1503964067626,-2, 6, 6, 6, 1, -3, -6, 8
1503964067633,-10, -5, -24, -2, 7, 6, 6, -21
1503964067649,5, 9, -8, -9, -6, -5, 0, 14
1503964067656,-3, 0, 3, 1, -6, -8, 0, 5
1503964067662,2, 7, 5, -1, 1, 1, -1, 16
1503964067678,-18, -4, -1, -3, -4, -7, 1, 2
1503964067687,3, 11, -1, -3, 1, 2, -1, 6
1503964067700,10, -9, 7, 0, -3, -4, 9, 11
1503964067707,-1, -8, -4, -4, -1, -8, -15, -36
1503964067722,10, 23, 12, 9, -1, 2, 0, 6
1503964067730,-8, 2, 5, 1, 1, -3, -2, -1
1503964067738,1, -9, -4, -3, -2, -1, 5, 0
1503964067745,-21, 13, 15, 8, 0, -4, -10, -24
1503964067761,-7, 1, 3, -8, 4, 4, 3, -1
1503964067767,-1, -2, -2, -9, -2, 2, -4, 13
1503964067783,-1, -3, -11, 0, -1, 1, 3, -14
1503964067790,4, -5, -2, -2, -1, -3, -13, 8
1503964067798,-6, 1, 8, 7, -1, -5, -7, 3
1503964067805,-7, -9, -1, 3, 0, -1, 5, 5
1503964067821,-15, -2, 2, 2, -1, -3, -6, -15
1503964067827,-1, 1, -10, -4, -1, 3, 16, 7
1503964067835,21, 9, 0, -10, -7, -6, -5, -12
1503964067850,18, -11, 16, 1, 3, 7, 2, 5
1503964067859,-1, -17, -12, 4, 2, -5, 0, 1
1503964067865,1, -1, 0, 10, 1, -2, -5, -7
1503964067880,0, -3, -2, -3, -3, -4, -7, 4
1503964067888,-3, -1, -9, -7, -4, -4, -3, 7
1503964067896,1, 2, 1, 0, 1, 3, -2, 7
1503964067910,-12, 0, -2, 0, 0, 0, 17, 3
1503964067918,2, 0, 11, -5, -2, -2, 1, 4
1503964067925,1, 7, 0, 11, 0, 4, 12, 22
1503964067940,2, -4, -20, -8, -4, -1, -5, -4
1503964067947,-3, 5, -1, -7, -2, -2, -2, 5
1503964067955,-2, 4, 15, 6, -1, 0, 0, 2
1503964067970,-4, -7, 3, 9, 3, -2, -9, -11
1503964067978,3, 24, 18, 5, -1, 0, 5, -8
1503964067985,2, -5, 1, 3, -1, 1, -3, 9
1503964068000,-9, -13, -11, -7, -3, -4, -6, -13
1503964068007,-24, -8, -13, -10, -3, -6, -9, -20
1503964068015,-10, -9, -8, -7, -2, -1, 0, 12
1503964068030,-5, -12, 21, -2, -1, -2, -18, -14
1503964068038,0, 1, -2, 6, -2, -1, 6, 6
1503964068045,9, 10, -11, -17, -3, -3, 0, 12
1503964068060,5, -3, 4, 11, 3, 0, -4, -5
1503964068067,3, -4, -3, 2, 1, 0, 4, 1
1503964068075,-1, 0, -8, -7, 0, -3, 0, 3
1503964068090,-4, 4, 0, 6, 2, 0, 3, -10
1503964068098,1, 0, -9, -4, -3, -1, 0, 21
1503964068105,5, 5, -5, -5, 1, 1, 4, 6
1503964068120,0, -7, -4, 7, -1, -1, -3, -12
1503964068127,1, 10, -1, 2, -1, -1, 0, 0
1503964068135,7, -2, -11, -15, -3, -1, -4, -6
1503964068150,-14, -6, 12, 11, 2, 1, -1, -7
1503964068158,-8, -9, 13, 3, 2, 4, 8, 2
1503964068165,27, -2, -6, -5, -1, 0, -2, 67
1503964068180,7, -4, 10, 3, -2, -1, 0, 4
1503964068189,10, -4, -3, -1, 0, 1, 5, -4
1503964068195,-7, -3, -9, -3, 2, 0, -16, -31
1503964068210,2, 6, 1, -4, -3, -2, 13, -21
1503964068218,-13, 2, 1, -3, -2, 0, 6, -11
1503964068225,-6, -1, -8, -6, -2, -1, -7, -10
1503964068240,4, 10, 7, 1, 2, 0, 2, 14
1503964068247,1, -15, -7, -3, 1, -1, 4, -15
1503964068256,7, -1, 3, 1, -1, -2, -5, 5
1503964068270,-19, 2, 1, -2, -2, -4, -4, -18
1503964068278,0, -9, 6, 0, 0, -1, 0, 3
1503964068285,15, -4, 1, 3, 4, 2, 4, 1
1503964068300,-16, -7, -11, -13, -4, -4, -3, -5
1503964068307,1, 2, -1, 10, 1, -1, -9, -18
1503964068315,7, -4, -1, -5, -1, -3, 0, -4
1503964068330,-1, 5, 9, 1, -3, -2, -7, 9
1503964068338,0, -17, -15, 4, -3, 0, -8, 1
1503964068345,-8, -15, -13, -4, 2, 2, -3, -7
1503964068360,3, 15, -6, -27, -7, -3, 4, 4
1503964068368,-1, 8, 7, 21, 1, 1, 1, -18
1503964068375,-27, 2, 11, -7, -1, -1, -1, -5
1503964068391,-3, 1, -2, -4, -6, -3, 3, 12
1503964068399,11, 7, -9, 25, 1, -2, 0, 1
1503964068405,-20, -34, -16, -9, -5, -1, -3, -2
1503964068420,5, -7, -49, -8, -1, -1, 1, 5
1503964068427,19, 30, 21, 8, 3, -1, -5, 20
1503964068435,25, 15, 10, -1, 1, 0, 6, 13
1503964068450,5, 7, 1, -8, -2, -2, -7, -4
1503964068459,-2, 1, 17, 14, 7, 2, 2, -4
1503964068465,-8, -7, 5, 1, -2, -3, -6, -27
1503964068480,-2, 2, 5, -7, -3, 1, -10, -12
1503964068487,-17, -12, -5, -3, 2, 0, -1, -24
1503964068495,11, -13, -21, 0, -2, 0, -1, 0
1503964068510,1, 2, -15, -2, -3, -1, 4, 0
1503964068518,9, 1, 13, -5, -3, -3, 0, 11
1503964068525,2, 28, 5, -3, 1, 0, 2, 5
1503964068540,-14, -12, -7, -23, -3, 1, 1, -4
1503964068547,11, -2, -1, 13, -1, -2, 0, 11
1503964068562,-6, 0, 20, 6, 3, 2, 5, 1
1503964068570,-2, -7, -7, -10, -1, -2, -12, 0
1503964068578,-5, -2, 11, 14, 6, 2, 3, -16
1503964068585,-1, 0, -5, -9, -2, -2, 1, -18
1503964068600,11, 8, 20, 20, -3, -3, -10, -2
1503964068607,0, -5, -22, -12, -3, 0, 1, 78
1503964068623,1, -10, 13, 18, 0, 0, 5, 5
1503964068631,-4, -1, 2, -4, 0, 1, 10, -1
1503964068638,12, 19, -19, -15, -3, -1, -3, 17
1503964068652,9, -7, 11, 8, 0, 1, 7, 19
1503964068660,-15, 0, -4, -2, -3, -2, 0, -15
1503964068668,-6, -1, -3, 3, 0, 0, -2, -24
1503964068682,-23, 9, -14, -34, -4, -2, -14, -12
1503964068690,10, 17, 31, 8, 1, -1, -4, -8
1503964068698,-14, 6, -6, -11, -3, -2, 0, -17
1503964068711,1, -3, -19, -22, -1, 0, 3, 15
1503964068712,-6, -11, -14, -2, 0, -3, -7, -3
1503964068720,5, -3, 0, -3, 0, -3, 3, 10
1503964068728,3, 6, -4, 0, -1, -1, 3, -4
1503964068742,4, -34, 5, 7, 1, 2, 3, 7
1503964068750,0, 9, 21, 16, 1, 2, 2, 9
1503964068760,-7, 8, -12, -3, -2, -3, -6, -28
1503964068772,-24, -4, 1, -18, -3, 0, -1, -50
1503964068780,15, -2, 13, 16, 2, 0, 5, 40
1503964068787,0, -3, -14, -11, -6, -3, -10, -16
1503964068802,2, -3, -15, 5, 1, 1, 2, 2
1503964068810,-6, -12, -16, -7, -2, -2, -6, -23
1503964068818,7, 12, -11, 23, 1, 0, -5, -4
1503964068831,-12, 10, 36, 15, 3, 0, -1, -10
1503964068832,3, 4, 1, -9, -1, 0, 0, 4
1503964068840,-7, -18, -16, -8, -4, -3, -2, 42
1503964068847,10, 3, 0, 0, 0, 1, 8, 25
1503964068862,-5, -19, 2, -23, -4, -3, -4, -47
1503964068870,-1, 0, 29, 13, 4, 1, -4, 13
1503964068878,-1, -3, 1, 7, 1, 2, 4, 1
1503964068894,12, 10, 4, -12, 2, 3, 4, 0
1503964068900,-5, 2, -6, -15, -4, -1, -5, -41
1503964068907,12, 11, -2, 5, 0, 0, 0, 7
1503964068922,-10, -1, -2, -3, -2, -2, -12, -46
1503964068930,-18, 2, 9, -5, -4, -4, -3, -4
1503964068938,9, 13, 24, 12, 3, -1, -2, 10
1503964068951,-1, 0, -10, -3, 0, 0, -2, -1
1503964068952,-13, -11, -4, 10, 2, -3, -6, -12
1503964068961,2, 5, -14, -5, -2, -2, -8, 8
1503964068967,5, -37, -15, 9, 0, 0, -1, -3
1503964068982,5, 3, 9, 7, 1, 1, 11, 16
1503964068990,-2, -3, -19, -17, -6, -1, 2, 9
1503964068998,-2, 11, 6, 42, 1, 1, 1, 13
1503964069012,-11, -8, -19, -15, -3, -3, -2, 3
1503964069020,-1, 23, 7, -17, -1, 0, 3, -17
1503964069034,4, 18, 17, 7, 0, 0, 2, 18
1503964069042,-13, -5, 2, -27, -10, -5, 6, 26
1503964069058,2, 7, 32, 18, 3, 0, -3, -9
1503964069059,15, -28, -23, -17, -1, 0, 1, 51
1503964069072,-6, -1, -34, -5, -5, -4, -1, 5
1503964069080,-14, -1, -5, 20, 4, 0, -4, -9
1503964069087,8, 2, -17, -2, 0, -3, -7, -42
1503964069102,3, -6, -3, -2, -8, -7, 1, 38
1503964069110,-3, -12, -20, -21, -5, -1, 2, 1
1503964069118,3, 15, 40, 31, 10, 4, 1, 0
1503964069132,3, 25, -5, -8, -6, -6, -8, -26
1503964069140,13, -4, -11, 7, 3, 1, 0, 4
1503964069148,-8, -37, -10, 6, 2, -2, -3, 28
1503964069163,-10, -22, 3, -7, -3, -1, 2, -12
1503964069170,-6, 4, 5, 3, 0, -1, -2, -24
1503964069185,-6, 6, -3, -12, -1, -1, -2, -13
1503964069192,19, 21, 2, 4, 1, 3, 5, 32
1503964069200,-5, -7, -25, 13, -1, 1, -12, -15
1503964069207,6, -8, 1, 23, 7, 2, -9, -28
1503964069222,1, 3, 2, -9, -5, -1, 5, 2
1503964069230,-14, -18, -10, -8, -7, -1, 5, 14
1503964069238,1, -5, -18, -25, -1, -1, 0, -2
1503964069252,1, -8, -5, -16, 3, 1, 0, -12
1503964069260,2, -16, 25, 17, 5, 3, 7, 26
1503964069271,2, -18, -7, -9, -3, -4, -1, 6
1503964069282,-2, 1, 4, -7, -1, -1, -4, -24
1503964069290,-2, -5, -2, 1, -2, 1, 4, 22
1503964069298,2, 11, 2, 53, 1, 0, 0, 5
1503964069312,9, 12, 1, -17, -3, 1, 3, 25
1503964069320,-13, -4, 0, -11, -5, -6, -3, -14
1503964069327,7, -13, 25, 31, 6, -3, -2, -53
1503964069342,-1, -5, -17, -20, -4, -2, -6, 4
1503964069350,3, 18, 1, -18, -3, 2, 4, 10
1503964069358,11, 23, 8, -20, -4, -3, 5, -4
1503964069373,-11, -8, 19, -7, 4, 7, 7, -5
1503964069380,-8, -21, -2, 1, 1, -4, -6, -20
1503964069387,-3, 0, -33, -25, -13, -6, 3, 20
1503964069402,7, 11, 30, 9, 6, 6, 2, -2
1503964069410,0, 4, 3, 6, -2, -4, -6, -26
1503964069418,7, -3, -2, -11, 2, 0, 1, 1
1503964069432,2, 11, -4, -3, -4, -4, 0, 23
1503964069441,-32, 6, -3, 24, -1, -3, -8, -35
1503964069447,0, 5, 8, 8, 1, -1, -3, -16
1503964069464,6, 4, -13, -25, -4, -2, -4, 6
1503964069470,6, 0, 9, 21, 4, 3, 2, 15
1503964069478,3, -4, -5, -7, -3, 2, 9, 43
1503964069492,-3, -1, 6, -5, -1, -2, 8, 7
1503964069500,-3, -6, 2, -8, -3, -3, -2, -2
1503964069509,4, 18, 26, 11, 0, -2, -1, 26
1503964069522,0, -15, -1, -10, -1, -1, -8, -1
1503964069532,-8, -1, 5, 7, -3, -3, -8, -23
1503964069545,6, 4, -7, 1, -1, -1, -2, -3
1503964069551,10, -14, -15, -6, -4, 1, 2, 0
1503964069560,-7, 2, -13, -9, -1, 0, 1, -15
1503964069575,3, 7, 5, 4, 1, 0, -1, 20
1503964069582,-5, 21, 28, 16, 1, 0, 2, -5
1503964069590,-8, -12, -11, -4, -2, -1, -1, -9
1503964069605,2, 1, -9, -15, -3, -2, -4, -5
1503964069612,-1, 6, 12, 14, 4, 0, -16, -12
1503964069620,10, -5, -14, -4, -5, -1, 2, -3
1503964069634,-3, 2, -1, -3, 1, 2, 3, 0
1503964069642,-14, 3, 1, 2, 1, 0, -4, -15
1503964069650,-25, -15, -15, -11, -6, -4, 0, 14
1503964069667,8, 1, -1, 4, -2, -1, 12, 6
1503964069672,-12, -14, -3, 0, 2, -1, -12, -58
1503964069680,-2, 3, -12, 7, -2, -1, -2, 3
1503964069694,-10, 1, -12, -17, -4, -1, 1, 11
1503964069703,6, 1, 21, 18, 6, -1, 2, -7
1503964069710,1, -8, 1, 0, 0, -2, -7, -8
1503964069725,-1, -6, -8, -10, -6, -2, 4, 26
1503964069733,-2, -1, 7, -4, 1, 1, 5, -7
1503964069740,18, 4, -6, 0, -1, 0, -8, -20
1503964069754,-5, -1, -10, -7, -5, -3, -5, 3
1503964069762,-1, 13, 10, -7, -1, -1, 2, 1
1503964069770,7, 7, 2, 16, -1, -1, 3, -8
1503964069784,-2, -3, 11, 6, 1, 1, 0, 9
1503964069785,-1, -5, -6, -7, 1, 0, -4, -2
1503964069792,10, 6, 3, 3, 1, 2, 3, 23
1503964069801,-9, -24, -19, -28, -9, -2, 1, 24
1503964069814,4, 10, 23, 15, 2, 0, -1, 12
1503964069822,-3, 8, 23, 24, 5, 2, 9, -12
1503964069830,-18, -8, -15, -7, -3, -4, -4, -6
1503964069845,0, -9, -11, -6, 0, 0, -4, 6
1503964069852,-7, -8, -3, -2, 3, 1, 3, -10
1503964069860,-7, 5, 6, 0, -1, -2, -14, -4
1503964069874,18, 10, 1, -8, -1, 3, -10, -21
1503964069882,1, -2, -7, 7, -1, -2, 5, -1
1503964069889,0, -7, -11, -9, -5, -3, -3, -3
1503964069905,0, -1, -4, 22, 4, 0, -2, -6
1503964069912,-4, -17, -11, -5, 1, -3, -1, 8
1503964069920,-4, 4, -5, -21, -6, -2, -2, 6
1503964069935,8, 6, 5, 6, 1, 1, 6, 12
1503964069943,-1, -4, 6, 4, 1, 0, 4, 2
1503964069950,-7, -1, -3, -2, -1, -1, 6, -1
1503964069965,-2, -4, 6, -5, -2, -3, -18, -8
1503964069975,10, -5, -10, -5, 1, 0, 1, -6
1503964069980,17, 1, -6, -2, 1, -1, -13, 13
1503964069994,-19, 5, 21, 4, 1, -2, -8, -15
1503964070003,-5, -4, 4, 20, 1, 1, 5, -9
1503964070011,6, 5, -4, 3, -1, -2, 3, 12
1503964070025,1, 0, -5, -13, 0, 0, 4, -10
1503964070032,-8, -7, 9, 5, 2, 2, 3, 0
1503964070041,-15, -1, 1, -1, -1, -3, -1, -1
1503964070054,-3, -3, -7, -9, -4, -1, 2, -10
1503964070062,2, 9, 5, -2, 0, -1, 0, -7
1503964070072,-11, 3, 1, -2, -1, 1, -1, -3
1503964070085,6, -11, -15, -12, -2, 0, 3, -8
1503964070092,5, -2, -3, 1, -2, -2, 3, 19
1503964070103,1, -2, 10, 27, 3, 1, -11, 0
1503964070114,5, -11, -17, 8, 3, 0, -2, 9
1503964070122,5, -6, -11, -22, -5, -2, 5, 0
1503964070130,4, 7, 15, 2, -2, -1, -3, -3
1503964070145,-4, -2, -4, -8, -4, -2, -1, 15
1503964070152,1, 0, -1, -6, 1, 1, -3, 4
1503964070160,5, 2, 3, -3, 5, 1, 0, -8
1503964070174,0, 8, -4, -8, -5, -5, -4, -10
1503964070182,23, 3, 18, 2, 0, 2, 9, 8
1503964070190,-28, -9, -7, -5, -4, -5, -9, -28
1503964070205,-7, 1, -1, -4, 0, 0, -2, -5
1503964070212,21, -5, -10, -8, -3, -1, 7, 26
1503964070213,9, -1, 3, -4, -3, 1, -11, 0
1503964070220,-8, 2, 3, 7, -1, -2, 3, 2
1503964070234,4, -12, -4, -5, -1, 2, 4, 11
1503964070242,-6, 5, 13, 7, 0, 1, -2, -10
1503964070250,3, -1, -5, -4, -3, 0, 5, 10
1503964070265,-6, -6, -13, -11, 3, -1, 3, 2
1503964070272,5, 4, 7, 10, 20, 1, 6, 4
1503964070280,-6, -1, -11, -18, 0, -2, -1, -2
1503964070294,5, 8, 27, 17, 1, 0, -2, 4
1503964070304,-1, -7, -10, -6, -4, -1, -1, -1
1503964070317,1, 0, 2, 9, 0, 0, 2, 5
1503964070325,22, 0, -1, 0, -7, 0, 1, 1
1503964070339,-15, 9, -8, -9, -11, -6, -4, -9
1503964070341,1, -3, -3, 3, -2, -2, -13, -9
1503964070354,3, 7, 1, -2, 2, 3, 4, 2
1503964070362,-6, 3, -2, -4, -7, 0, 4, 5
1503964070372,-3, -1, -3, -2, -6, -1, -4, 5
1503964070385,-10, -8, -6, -3, -2, -1, -2, 0
1503964070392,4, 0, 13, 6, -1, -1, 2, -6
1503964070400,-12, -14, -8, -4, -3, -4, 0, -1
1503964070414,2, -7, -6, -6, -2, -1, -2, -1
1503964070422,-7, 6, 0, 0, 1, 0, 6, 9
1503964070439,-2, -16, -11, -6, 19, 2, -2, -16
1503964070445,2, 6, 13, 18, 2, 3, 0, -10
1503964070452,13, 6, 0, -7, -2, 1, 3, 7
1503964070467,-5, -13, 1, 8, 0, -1, -5, -15
1503964070474,6, 0, -7, -10, -3, -3, 1, -2
1503964070482,9, 3, 0, 2, -2, -1, 10, 13
1503964070497,2, -3, -2, 1, -1, -7, -1, -11
1503964070506,-5, 4, 2, -1, 1, -2, -5, 0
1503964070512,-5, -8, -12, -6, -8, -2, -5, 8
1503964070527,-2, 2, -1, -5, -1, -4, 1, 2
1503964070534,4, -5, -8, -3, -5, -4, -6, 3
1503964070543,-4, 9, 5, 3, -3, 0, 0, 1
1503964070556,2, 4, 9, -7, -4, 0, 5, 8
1503964070565,-4, 1, -20, 16, -1, -1, 0, 4
1503964070573,6, -1, -14, 5, -7, 4, 6, 3
1503964070587,-1, 0, -9, -10, -10, -4, -8, -14
1503964070594,-8, -2, 7, 1, -2, 1, -1, 4
1503964070602,-2, -2, 2, -4, 1, 3, 1, 2
1503964070617,3, 9, 7, -3, -4, 1, 0, -6
1503964070625,0, -2, 5, 0, 3, 0, -1, -3
1503964070632,-2, 1, -11, 2, 1, -1, 2, 3
1503964070648,2, -2, 5, -12, 0, -1, 0, -2
1503964070654,-1, 4, 0, 13, 4, 1, 1, 6
1503964070663,-3, -5, -5, -6, -3, -3, -3, -14
1503964070677,-1, -3, 8, -2, 0, -2, -9, -4
1503964070685,16, -1, -1, -4, 3, 1, -6, 15
1503964070692,-12, -3, 1, 6, 0, -4, -9, -25
1503964070707,-14, -4, -4, 1, -2, -2, 1, 5
1503964070714,0, -7, -10, -10, -1, -1, -5, -4
1503964070722,-2, 0, -7, 34, -3, 0, -2, 0
1503964070736,16, -3, -15, -6, -3, 0, 2, 7
1503964070751,-8, -2, -7, -17, 1, -3, -5, -10
1503964070753,-2, 3, 9, 3, -1, 0, 4, 6
1503964070767,-7, 0, 6, -2, 3, 0, 2, -1
1503964070774,-5, -1, 4, -7, 0, 0, -4, -3
1503964070783,5, 1, 6, -2, 0, -1, 2, -4
1503964070797,1, 2, -4, 3, 2, 3, 15, 10
1503964070807,-4, -7, -3, -5, -3, -6, -6, 4
1503964070812,-2, 4, 2, 1, -4, -2, 0, 4
1503964070827,7, 3, 6, -2, 4, 6, 0, 2
1503964070834,-10, -2, -4, -5, -1, -4, -3, -1
1503964070842,0, 2, 6, 3, 0, -1, -18, -1
1503964070856,-2, -1, 0, 0, 0, 1, -2, -7
1503964070865,3, -3, -3, -5, 1, 2, 9, 10
1503964070875,-1, 1, 4, -2, -2, -1, -1, -9
1503964070887,4, -9, -4, -5, -12, 1, 6, -4
1503964070894,0, -3, -3, 1, 2, -1, -19, -25
1503964070902,-2, 6, -4, 0, 0, -2, -1, -6
1503964070917,-4, 3, -2, -1, -3, -2, 2, 8
1503964070925,-2, 1, 0, 8, 7, -2, 6, 9
1503964070932,-5, -6, -2, 2, 1, -2, -4, -5
1503964070947,1, -2, -3, -11, -4, -3, -9, -10
1503964070954,11, 5, 0, 1, -1, 1, 1, 10
1503964070962,0, -5, 0, -6, -2, 0, 4, -3
1503964070977,-1, 9, 5, 9, -1, -1, -1, -7
1503964070985,-4, 0, 12, 4, 3, 0, 1, 3
1503964070992,-2, -1, -7, -8, -1, 1, 3, 9
1503964071010,-4, -7, -2, 0, -2, -2, -18, -15
1503964071014,-5, -3, -3, -3, 1, 0, -1, -13
1503964071023,3, -1, 1, -7, -2, 2, 14, 13
1503964071036,-4, -2, 2, 1, -3, -1, 4, -5
1503964071047,5, 10, 6, -4, 2, -1, 2, -5
1503964071052,-4, -8, -1, 0, -2, -2, 2, 9
1503964071067,11, 0, -12, -3, 0, 1, -8, 14
1503964071075,-24, -7, 4, 1, -1, -3, -3, -5
1503964071082,-3, -2, -2, 1, 0, 0, -3, -11
1503964071097,11, 8, -1, -4, 0, -1, 1, 4
1503964071105,-3, -1, -1, -1, -2, -2, 0, 4
1503964071113,-1, -4, -3, -2, 0, 2, -16, -10
1503964071127,3, 0, -2, 3, -1, -4, -3, 4
1503964071134,-4, -6, 0, -3, -1, -2, 0, -1
1503964071143,1, 8, 6, 8, 0, 0, 3, -1
1503964071144,-6, -1, 3, -4, -2, -1, -8, -11
1503964071156,4, 1, -1, -1, -2, -2, 0, 9
1503964071157,0, -4, -6, 3, 1, -2, 2, -2
1503964071165,-8, -2, 2, -1, -4, -2, 6, 2
1503964071172,5, 9, 3, 1, 0, 2, 1, 0
1503964071187,-1, -3, -5, 1, 3, -1, 0, 4
1503964071194,5, 4, 0, 2, -1, 0, 4, 3
1503964071202,-1, 4, 4, -1, -3, -2, 4, -4
1503964071217,2, 4, -2, -3, -1, 0, 2, 3
1503964071225,13, -4, -7, -5, -2, 1, 4, 4
1503964071232,-8, -5, -3, 0, -1, -1, -16, -3
1503964071251,-1, 5, 11, 9, 1, -3, 0, -7
1503964071252,-2, -6, -7, -2, -2, 1, 3, 0
1503964071254,4, 4, 10, 1, 0, -2, -14, 9
1503964071262,-5, 0, 2, 0, 0, -2, 5, 10
1503964071282,2, -6, -6, -7, -3, -1, 11, 6
1503964071286,-9, -4, 4, 3, 1, 1, 0, -13
1503964071292,-3, -2, -2, 0, -2, -3, -2, 0
1503964071307,-3, 3, -5, -3, -2, 0, -2, -2
1503964071318,0, -9, -2, 1, -1, 1, 5, -1
1503964071322,-22, 3, 2, -4, 0, -1, -1, -1
1503964071323,-2, -7, -6, -5, -4, -3, 1, 2
1503964071337,-1, -6, 1, 3, 0, 1, 3, -2
1503964071348,-2, 4, 3, 3, 0, 0, -4, -3
1503964071352,5, 0, -6, -3, -1, -1, -14, -22
1503964071367,-2, -2, 0, 4, -2, -1, 3, 1
1503964071374,9, 4, 5, 0, 0, 2, 12, 6
1503964071382,-9, -3, 1, -2, -3, -4, 0, -13
1503964071397,-4, -2, -4, -1, -3, -2, -3, 9
1503964071405,2, -11, -13, -4, 1, -2, 0, 0
1503964071420,-7, -3, -1, 3, 2, 2, 7, 0
1503964071427,6, 0, -6, -3, -2, -2, -13, 12
1503964071435,-3, -6, -5, -6, -3, -2, 1, -2
1503964071450,-5, 6, 7, 8, 0, -1, 0, -2
1503964071458,-2, 0, 0, -5, -3, -2, 5, 9
1503964071465,0, 2, 4, -3, -1, -3, -8, -27
1503964071481,3, -1, -1, 8, 0, -1, 8, -1
1503964071488,4, 4, -1, -2, -1, 3, 1, 8
1503964071495,-2, -3, -2, -4, -1, -3, -4, 3
1503964071509,-4, 4, -4, -1, -1, -3, -3, -2
1503964071510,-3, 0, 6, 2, 1, -1, -3, 2
1503964071518,4, -1, 1, -1, -1, 0, -3, -3
1503964071525,1, -1, -5, -1, 1, -1, -5, -2
1503964071540,3, 5, 0, -5, 0, 2, 7, 14
1503964071547,-5, 4, -4, -4, -2, -2, -1, 0
1503964071555,-4, 3, 0, 0, -3, -1, -1, -18
1503964071570,-1, 1, 0, 0, 1, 0, 0, 3
1503964071580,-8, -6, -6, -2, -2, -2, -3, -3
1503964071585,5, -9, -2, -4, -1, 1, 1, -12
1503964071600,-6, 2, 3, -1, 1, -2, -7, 11
1503964071607,-10, -6, -3, 1, 1, 0, -5, 3
1503964071624,-15, -5, -2, -2, -1, -3, 0, -14
1503964071630,2, 3, 0, -2, 0, 0, 4, -8
1503964071638,6, 0, 0, 1, -1, -1, -9, -1
1503964071648,-1, 0, -2, 0, -4, -2, -4, 1
1503964071660,0, -3, -4, -3, -2, -2, 0, -10
1503964071667,3, 2, -4, -2, -1, -1, 1, 5
1503964071675,-5, 1, 4, 4, 1, -1, -7, 3
1503964071690,9, -1, -3, 3, 0, -1, 8, 6
1503964071698,8, -5, -9, 1, 0, 0, -2, -14
1503964071705,-2, -11, 3, -1, 1, -1, 1, 8
1503964071720,-7, 1, 9, 1, 0, -1, -1, 9
1503964071728,-1, 3, 1, -3, -2, 1, 4, 0
1503964071735,-1, -9, -3, -1, -1, -1, 4, -3
1503964071751,-6, 9, 6, 2, -2, -1, -2, 6
1503964071758,4, 8, -2, 1, 0, 0, 2, 14
1503964071765,-12, -2, -4, -3, 0, 0, 1, -10
1503964071782,0, -3, 5, -1, -1, -2, 0, 16
1503964071788,-1, -12, -1, 1, 0, -1, -4, -1
1503964071796,-4, 0, 2, -1, 0, -1, -7, -8
1503964071810,11, 4, 1, 0, 0, 2, 3, 1
1503964071819,8, 4, -6, 0, -3, 1, -2, -5
1503964071825,-5, 7, 4, -1, -2, -2, 3, -9
1503964071840,0, 5, -1, -2, 0, 0, 0, -6
1503964071848,-4, -4, -3, 0, -1, -1, -4, -2
1503964071856,0, -1, -2, 0, 2, 1, 11, 13
1503964071870,-3, 0, 0, -1, 0, -1, -8, -4
1503964071878,2, -5, -1, -1, -1, -1, -2, -8
1503964071885,1, 0, -3, 1, -2, -1, 2, 9
1503964071900,-1, -8, 2, -1, -4, -1, -6, -6
1503964071907,-1, -2, 3, 0, 1, -3, -9, 1
1503964071916,3, 10, -4, 3, -2, -1, 0, -3
1503964071930,-9, 4, -6, -3, -3, -3, -8, -16
1503964071938,2, 6, 4, 3, -3, -2, -4, -7
1503964071944,-5, 2, 0, 3, 0, 0, 4, -5
1503964071945,3, -5, -6, -2, -1, -1, 4, 3
1503964071960,-5, -3, -2, -8, -1, -1, -4, 2
1503964071967,-1, -3, 0, 5, 0, 0, 3, -13
1503964071975,5, -5, 4, 4, 0, 0, 0, -7
1503964071990,-7, -2, -2, -4, -1, 2, -6, -6
1503964071998,0, 1, 2, -1, 0, -2, -2, 11
1503964072004,2, 0, -3, -1, -1, 0, 4, 2
1503964072020,-5, 0, -1, -4, 3, -1, 1, -8
1503964072027,5, 3, 6, 4, 0, 0, 9, 11
1503964072035,-9, 2, -6, -5, -4, -2, -4, 0
1503964072050,-11, -14, -4, -3, -2, -1, 2, 2
1503964072058,5, -2, 2, -1, 1, 0, 2, 1
1503964072065,2, 5, 4, -2, -2, -1, -2, 2
1503964072080,0, 2, -3, -4, -3, -1, 1, 2
1503964072087,6, -3, 6, 3, 1, -1, -4, -7
1503964072095,-1, 3, -2, 6, 2, 1, -6, 4
1503964072109,-4, -15, 0, 0, 0, -1, -6, -15
1503964072110,3, -4, -6, -3, -3, -1, 1, -5
1503964072121,-8, -7, -4, -6, -4, -5, 1, -4
1503964072125,3, 2, -1, 2, 1, 0, -4, 3
1503964072140,-1, -7, -2, 0, 0, -1, 4, 2
1503964072147,1, 1, 3, 0, -1, -2, -3, -1
1503964072155,0, -7, 0, 0, -1, -2, -5, -11
1503964072169,1, 6, -2, 1, -1, -1, 1, 2
1503964072177,-1, -6, 3, 3, 1, 2, 6, 4
1503964072185,-1, 0, -3, -3, -3, 1, -4, 1
1503964072200,9, -1, -2, -1, 1, 0, 0, -1
1503964072207,-14, 2, 4, 0, 0, -2, -1, -12
1503964072217,-2, 2, 0, -4, -1, -1, 2, 2
1503964072230,3, -3, -3, -2, -3, -2, 0, -11
1503964072237,-5, 17, 13, 6, 2, 1, 7, 8
1503964072244,-1, -2, -3, -5, -1, -2, -8, 1
1503964072260,0, -9, -9, -4, -1, 2, 5, 5
1503964072267,-4, -1, 1, 1, -2, -3, 4, 0
1503964072275,-1, 0, -3, -2, -2, 1, -2, -6
1503964072290,4, -5, -5, -2, -1, -3, 1, 3
1503964072297,-4, -9, -5, -3, -1, -3, -8, -18
1503964072304,1, -7, -1, -2, -3, 0, -4, 8
1503964072322,-1, 2, 4, -1, -1, 0, -2, -1
1503964072327,0, 3, 3, -3, 0, -2, 0, -5
1503964072342,7, -3, -12, -5, -3, -1, 0, 1
1503964072354,-2, -2, 1, 2, 2, 0, 1, 1
1503964072358,0, 0, 1, 1, 1, -1, 0, 0
1503964072372,8, -7, -4, -4, -1, 0, -9, 1
1503964072380,-2, -2, -1, 0, -2, -4, -16, -5
1503964072389,1, 0, -3, -1, -2, -1, -2, 2
1503964072402,-3, 1, 1, 1, -1, 3, 5, 12
1503964072410,-2, 1, -3, 2, 1, -2, 7, -4
1503964072420,-1, -9, 3, -1, 0, -3, 3, 0
1503964072432,-3, 0, -2, -3, 0, 1, 3, 2
1503964072440,-4, 1, -3, -2, -3, -2, -7, -17
1503964072447,-4, 3, 1, 1, 0, 1, 2, 5
1503964072462,-6, -6, -3, -3, 0, -1, -13, -2
1503964072469,2, 11, 6, 1, 0, 0, 1, 1
1503964072478,-2, -6, -5, -3, -1, -3, -7, -8
1503964072492,2, -4, -5, -3, 0, 0, -9, 1
1503964072500,2, 1, -1, -3, -3, 1, 4, 9
1503964072507,3, 0, -1, 0, -2, -1, 6, -1
1503964072523,0, 7, 4, 1, 2, -2, 2, -2
1503964072530,-4, -3, 1, 0, 1, -1, -1, -4
1503964072537,5, -11, -2, 5, 0, 0, 4, -1
1503964072555,-1, -5, -3, -3, -2, -1, -10, 4
1503964072560,0, 10, 3, 2, -2, -1, 1, -2
1503964072567,-1, -3, -4, -5, -1, 1, 0, 3
1503964072582,-1, 1, -2, -2, -2, 0, 9, 11
1503964072590,-4, -4, -3, -1, -1, -1, 6, -10
1503964072598,-5, -4, 1, 0, 1, 1, -2, -1
1503964072612,3, -1, -4, -1, -2, 0, -1, 4
1503964072620,0, 1, 0, 0, -2, 0, 2, -3
1503964072627,-22, 0, 0, 0, -2, -3, 0, -7
1503964072642,-1, 0, -5, -4, -2, -1, 0, -5
1503964072649,5, -3, 1, -1, 0, 0, 0, 2
1503964072657,-14, 11, -1, -2, 1, 0, -5, -14
1503964072672,2, -6, 0, 5, 0, -1, -4, -8
1503964072680,1, -6, 0, 1, -2, -2, -2, 4
1503964072687,0, 6, 2, 0, -1, -1, -2, -6
1503964072702,0, 1, 2, -3, 1, -1, -8, -5
1503964072709,-4, -1, 0, -2, 0, -1, 0, -9
1503964072710,2, -6, -3, 0, 0, -1, 6, 5
1503964072717,0, 0, 3, -1, -1, -1, 12, 3
1503964072732,5, 0, -5, -3, -1, -2, 4, -14
1503964072740,0, -9, -6, -3, -3, -2, -5, 11
1503964072747,3, -4, -6, -1, -1, 0, 2, -15
1503964072748,1, 9, 7, -1, -1, -1, -6, 9
1503964072762,2, 0, -3, 0, -2, 0, -5, 10
1503964072769,3, -1, -2, -2, -1, -1, -3, -2
1503964072777,-13, -2, 0, -2, 0, 1, 0, -10
1503964072778,5, -3, -3, -2, -1, -2, -2, 2
1503964072793,0, 6, 4, 2, -1, 0, -1, 0
1503964072800,0, -1, -8, -1, -2, 0, -4, -5
1503964072807,-2, -6, 0, -1, -1, -1, -11, 4
1503964072823,-1, 3, 1, 4, 0, -1, 1, -11
1503964072830,0, -1, 2, 3, 1, 1, -10, 1
1503964072837,0, -10, -2, -3, -1, -1, 4, 1
1503964072852,-3, -2, -5, -4, -3, 0, 8, -2
1503964072860,0, 1, 5, 2, -2, -1, -3, 3
1503964072867,-7, -2, 4, -2, 0, -1, -7, 5
1503964072883,-10, -16, 1, 1, 0, 0, -1, -12
1503964072890,3, -1, -2, -1, -1, 0, 5, 8
1503964072905,4, 13, 9, -4, -1, -2, 6, -1
1503964072912,0, -1, -4, 0, 0, -3, 5, 0
1503964072922,1, 4, -5, 0, 0, 1, -4, -10
1503964072927,-2, 1, 0, -1, -1, -1, 2, 3
1503964072949,4, 5, 0, -3, 0, 1, -1, 5
1503964072950,2, -19, -7, 0, -1, -3, -12, -1
1503964072958,-5, -4, -2, -2, -1, -2, -2, 3
1503964072972,2, 0, -4, -5, -2, -1, 8, 2
1503964072980,-1, -1, -1, 1, -2, 0, -1, 0
1503964072989,1, 4, 3, -1, -1, -2, -2, -1
1503964073002,-2, 2, -4, -2, 0, -3, -3, -5
1503964073009,1, 6, -1, 0, 0, 0, -2, -10
1503964073018,3, -7, -4, 1, 1, 3, -1, 0
1503964073033,-7, -29, -1, 0, 0, 0, 0, 1
1503964073040,-1, -3, -5, -1, -1, -3, -2, -5
1503964073047,-3, 13, 2, 1, -2, 0, 8, -2
1503964073063,-3, -3, 0, -6, -4, -4, 0, -9
1503964073069,-1, 3, -1, -3, -1, -1, -1, -1
1503964073077,-1, 4, 0, -2, 0, -1, -8, 3
1503964073092,-1, -1, -5, -2, 0, -1, 0, -2
1503964073100,0, 1, -1, 0, -1, 2, 3, 0
1503964073107,-2, -3, 5, 3, 0, 1, -3, -2
1503964073124,-11, -2, -3, 0, -1, 0, 0, 4
1503964073130,2, 16, -2, -1, -2, -2, 0, -5
1503964073137,7, 9, 0, -1, 0, 0, 3, 8
1503964073152,-4, -1, -2, -4, 0, 0, -5, -6
1503964073160,2, -1, 4, -1, 0, -2, 2, 4
1503964073167,-6, 1, 0, 3, -1, -1, 1, 7
1503964073182,2, -1, -2, -1, 1, -1, 8, -10
1503964073183,-5, -5, -3, 0, -1, -2, -9, 1
1503964073190,1, -2, -3, -2, 0, 1, 1, 5
1503964073200,0, -8, -4, 2, -1, 1, 3, 2
1503964073212,2, -6, -7, -3, -2, -2, -1, 1
1503964073220,4, 8, 9, 3, 0, 2, -2, 1
1503964073227,-6, -23, -1, -9, -2, -1, 2, -6
1503964073243,0, -8, -3, 3, 2, 0, -3, -15
1503964073250,1, 14, 10, 3, 0, 2, -1, 2
1503964073259,-2, 0, -1, -3, -2, -2, 0, 0
1503964073272,2, 1, -2, 0, 1, -2, 0, -4
1503964073280,3, 3, -1, -4, -1, -1, -2, -4
1503964073295,-2, -4, -3, 3, -1, -1, -5, 4
1503964073303,0, 4, -3, -8, -3, -4, -8, 4
1503964073310,-3, -17, 3, 3, 0, 2, 4, -3
1503964073326,-2, -3, -4, -2, -1, 0, 8, -5
1503964073333,1, 11, 0, 1, -1, -2, -6, -14
1503964073340,1, -6, -5, -1, -1, -1, 5, 1
1503964073355,3, 7, -1, -1, -2, -2, -3, 1
1503964073363,0, -1, -4, 1, 0, 1, 0, 3
1503964073370,6, 2, -3, 0, -1, -1, 0, 4
1503964073385,-3, 1, 10, 2, 0, -1, -4, 6
1503964073393,1, 1, -1, -1, -1, 0, -2, 2
1503964073400,-5, -8, 5, 6, 0, -1, 6, 0
1503964073415,-5, -3, 7, 1, -1, -1, -1, 5
1503964073422,0, 1, -1, -5, 0, -3, -1, 8
1503964073430,-2, 1, -7, -2, -2, -1, 11, -5
1503964073444,-4, -13, 3, -1, 0, -2, -4, -7
1503964073452,1, -3, -5, -2, -2, -1, -1, 3
1503964073467,6, 10, 3, 1, -1, 0, -3, -6
1503964073475,-1, 2, 1, -5, -1, -2, 0, -3
1503964073482,0, 1, -6, 4, 0, 0, -3, 5
1503964073489,0, -12, -3, 1, -1, -1, -2, 2
1503964073505,0, 0, -1, -2, -3, -1, 0, 2
1503964073512,-4, -1, -2, -4, 0, -2, -7, -6
1503964073520,-1, 1, 0, -1, -2, 1, -1, 2
1503964073535,-2, -1, -4, -1, 1, -2, 2, 5
1503964073542,-1, -5, -3, 2, -1, 0, -7, -1
1503964073550,-28, -8, -1, -2, -1, 0, -3, -25
1503964073565,-2, -5, -5, 0, 0, 0, 1, 7
1503964073572,10, 5, -1, 0, 0, 0, 1, 5
1503964073580,-2, -6, -2, -3, -1, -1, 1, -2
1503964073594,0, 3, -2, -2, -3, -2, -7, 2
1503964073603,1, 5, -3, -3, -2, -2, -1, -1
1503964073609,5, 8, 1, 4, 0, -1, -4, 3
1503964073627,-3, 3, -1, -3, 1, -3, -1, -4
1503964073632,2, 1, 4, -1, -2, 2, 0, 0
1503964073640,0, -1, -3, -7, -4, -2, 1, -6
1503964073654,-2, -11, 13, 6, 2, -1, 1, -2
1503964073662,0, -4, -1, -2, -2, 0, 0, 1
1503964073676,4, -4, -7, -3, -2, -1, -12, -1
1503964073684,0, 2, 2, 3, 1, 0, 4, 0
1503964073694,2, -12, -7, -1, 0, -1, -4, 4
1503964073700,0, 3, -1, 0, 1, -3, -4, -15
1503964073714,3, 3, 0, -2, -1, -1, 1, 8
1503964073722,-3, 4, 6, 2, -2, 0, 0, 2
1503964073729,0, -3, -4, 2, 1, -2, 1, -3
1503964073744,-2, -1, 0, 0, -2, 1, 0, 1
1503964073752,1, 8, -5, -7, -4, 0, -1, 0
1503964073762,-2, 2, 0, 0, 0, -1, -11, -4
1503964073774,1, 8, -2, 0, -3, -1, 1, 0
1503964073782,3, -1, -5, -2, 2, 0, 8, 5
1503964073789,-2, -4, 8, 1, 0, -2, 2, -3
1503964073805,1, 4, -2, 1, -1, -3, 0, -8
1503964073812,-3, -6, -3, -2, -1, -1, 2, -19
1503964073820,0, -6, -2, 2, -3, -1, 0, -4
1503964073834,-3, -3, -5, -4, -3, 0, 3, 5
1503964073842,-1, 0, -1, -2, -1, 0, -2, -3
1503964073849,-1, -4, 9, 2, 0, -1, -4, 0
1503964073866,0, 5, 3, 1, 0, 2, 1, 7
1503964073872,0, 4, -3, 1, -1, -2, -11, -6
1503964073880,1, -3, -2, -5, -1, -1, 0, 3
1503964073897,1, 1, -5, 1, 0, -1, 5, 2
1503964073902,-5, -9, -5, -6, -1, -2, -5, -2
1503964073909,-1, -3, -2, 0, 0, -2, -2, 6
1503964073925,0, 0, 2, 1, 0, -3, 3, 1
1503964073932,-5, -3, 0, -1, 1, 0, -8, 0
1503964073940,0, -5, -3, -2, -2, -1, -6, -8
1503964073954,2, 6, 2, 0, -1, -1, 3, 5
1503964073964,3, -6, -3, 2, 1, 1, 7, -10
1503964073970,-15, 2, -3, -3, -1, -1, 3, -6
1503964073984,0, 3, 0, 1, -2, -1, 2, 8
1503964073992,7, 3, -1, -2, -1, -1, -1, 2
1503964074000,-3, 1, 0, 0, -3, 0, -5, -3
1503964074015,0, 0, 0, -1, 0, 0, 1, 0
1503964074022,1, -7, -1, -3, -2, -3, 5, -3
1503964074031,0, 0, -3, 0, 0, -1, -3, -6
1503964074045,-2, -1, -1, 1, 3, 0, -2, 4
1503964074052,1, -3, -5, -3, -1, -1, 1, -9
1503964074060,-2, -5, -4, -3, -1, -1, -3, -7
1503964074075,0, 1, -1, -1, 0, -2, -5, 0
1503964074082,-3, 4, 5, 1, -2, -2, -3, 2
1503964074089,5, 1, 0, -1, 0, 0, 4, 8
1503964074105,0, -1, 1, 0, -1, -2, -3, -12
1503964074112,-2, 0, 0, -2, -2, -1, -2, 3
1503964074120,-1, -6, -1, -2, -1, 1, -1, 4
1503964074135,2, 1, -1, -1, 0, -1, 4, -2
1503964074143,-1, -3, -1, 1, -1, 1, -1, 5
1503964074149,0, -6, 0, -1, 0, 1, -7, -6
1503964074150,-4, 1, 1, -2, -4, 0, 1, -5
1503964074165,0, 2, -7, -6, 1, -1, -3, 0
1503964074172,-1, -5, -3, -3, 0, -3, 3, -9
1503964074187,-4, 4, 0, 1, -1, -1, 3, 0
1503964074194,0, 5, 0, 0, 0, 2, -2, 0
1503964074203,2, -3, 0, -1, -1, 0, -4, 7
1503964074216,-3, -4, -4, -2, -2, -1, 1, 3
1503964074224,-2, 2, 5, 0, 0, -1, -1, -3
1503964074233,-3, -4, 2, -3, -3, -1, 10, -3
1503964074247,1, 8, -6, 1, 1, 1, 8, 9
1503964074254,1, -3, -4, 2, 0, -1, 2, -1
1503964074263,-4, -11, -4, -3, -2, -1, -2, -3
1503964074276,2, -1, -1, 1, 1, 1, 1, 9
1503964074284,0, -3, 0, 0, -2, -1, -3, -7
1503964074292,5, 1, 8, 2, 0, -2, -2, -2
1503964074307,3, 6, 1, 0, 0, -2, -6, 1
1503964074314,-2, -1, -6, 0, -2, 0, -4, 0
1503964074322,-2, 2, 3, -2, -2, -2, 6, 2
1503964074336,0, 1, 0, -3, -1, -1, -10, 3
1503964074344,-3, -8, 8, 1, 2, 0, -6, -8
1503964074352,-17, -1, 0, -4, -2, -1, 1, 1
1503964074367,2, -5, -5, 0, -2, 1, -1, -4
1503964074375,2, -1, 0, -1, 1, 1, -2, -5
1503964074382,2, 1, -3, -2, -2, -1, 1, 5
1503964074398,3, -2, -1, -2, -3, -3, -6, -10
1503964074411,4, 0, -5, 0, 0, -1, 2, -6
1503964074412,3, -1, -1, 3, -2, 0, 1, 0
1503964074427,-4, -2, 1, -2, -2, 0, -4, 3
1503964074435,0, 0, -4, 0, 0, 0, 4, 1
1503964074442,0, 6, 0, -2, 1, 0, -5, -5
1503964074456,0, -1, 0, 0, -1, -2, -10, -6
1503964074465,0, 3, -1, -2, -2, -2, 5, -2
1503964074466,-3, 3, -2, -1, -1, -3, 0, -10
1503964074473,-1, -15, 2, 0, 0, 1, -3, 3
1503964074487,2, 4, 0, 0, -1, 0, -4, -2
1503964074494,0, 5, 3, 1, 0, -1, 3, 2
1503964074503,-4, -6, -2, -2, -1, 0, 1, 2
1503964074516,-2, -4, -2, -3, -2, 0, -2, -6
1503964074524,2, 1, -3, -4, -1, 0, 0, 5
1503964074533,15, 4, 4, 4, -1, -2, -3, 0
1503964074547,1, -4, 3, 3, 1, -1, 0, 5
1503964074554,1, 1, -8, -3, -1, -2, 3, 2
1503964074562,2, 0, 2, 1, 2, 0, 9, 5
1503964074576,0, 1, 1, -1, -2, -1, -3, 0
1503964074584,-6, -1, -1, 1, -1, -1, -3, -4
1503964074592,-8, -9, -7, -4, 0, 1, -2, 0
1503964074607,0, 4, 8, 0, 0, 1, 2, 2
1503964074614,-1, -3, -4, 0, -1, -1, -6, -3
1503964074622,3, -1, 6, -5, -1, -3, -3, 3
1503964074636,-3, -19, 1, -1, 1, 0, 1, 2
1503964074644,-1, -1, -7, -2, -1, -1, 0, -6
1503964074652,-2, 3, 2, 3, -1, -1, 8, -2
1503964074668,-2, 0, -4, -2, -3, -1, -1, -3
1503964074674,-3, -3, 0, -3, -2, -2, 3, 1
1503964074675,1, 12, 4, 0, -1, -2, 2, -1
1503964074682,-2, -2, -4, -1, 0, 2, -1, -9
1503964074696,1, -1, 10, 0, -2, 0, 1, 6
1503964074705,-11, 0, -3, -1, -2, -3, 0, -18
1503964074719,3, -4, -8, -4, -1, 0, -1, -4
1503964074727,4, -4, -3, 0, 0, 0, -1, 5
1503964074735,-3, 5, -1, -3, -1, -2, 2, -2
1503964074743,-2, -22, -10, 3, 2, -1, -4, 5
1503964074756,-7, 3, 2, 0, 0, -1, -3, -2
1503964074764,0, 3, -5, -3, -1, 0, 1, 9
1503964074772,1, 4, -2, -2, 0, -1, -6, 0
1503964074787,-4, 3, -1, -2, -3, -2, -3, -29
1503964074794,4, 7, -2, 2, 0, 0, 2, 0
1503964074803,2, -6, -3, 1, -1, -2, 7, 10
1503964074816,0, -1, 1, -2, -3, -3, -1, -10
1503964074824,-6, -1, 1, -2, -1, 0, -5, 0
1503964074832,-2, 5, -5, -2, -2, -1, 2, 6
1503964074847,4, 4, -1, -4, -2, 0, -5, -2
1503964074854,0, 2, -1, 2, -1, -2, -4, 0
1503964074862,3, 2, 1, 1, 0, 0, -2, 11
1503964074876,-7, -13, -9, -3, -1, -1, -2, -9
1503964074884,3, 1, 2, 1, 1, 0, -1, 8
1503964074892,-4, -4, -1, -4, -1, -1, -7, 2
1503964074907,2, 2, -2, 1, -2, -2, -5, -4
1503964074914,1, -1, 0, 0, 0, 0, 1, 14
1503964074929,-3, 3, 2, 1, -1, -2, 1, -6
1503964074936,0, -5, 4, 2, 1, 0, -8, -2
1503964074945,-14, -10, 0, -2, 0, 1, -1, -5
1503964074952,0, -2, -4, -3, -1, -1, 4, 5
1503964074967,1, 4, 0, 1, -1, -3, -3, -5
1503964074975,-1, -2, -1, -1, -3, -1, 1, -2
1503964074982,3, 4, 0, -2, -2, 2, 4, 5
1503964074997,-1, 0, -1, -2, 1, -3, -1, -2
1503964075006,-2, -2, -1, 0, 0, -2, -4, 1
1503964075012,-2, -5, -2, 0, 0, 1, 2, -1
1503964075034,-3, -8, -3, -1, 0, 1, -2, -5
1503964075038,4, -8, -5, -6, -1, 1, 1, -6
1503964075042,-4, -10, 14, 2, 0, -3, -3, 3
1503964075056,-2, 5, 2, -2, -1, -1, -2, -3
1503964075064,2, 3, -5, -4, -2, -1, 4, 12
1503964075072,2, 0, -3, 2, -4, -4, 0, -5
1503964075087,10, 5, 0, 0, -1, -1, 8, 7
1503964075094,-1, 5, 4, -1, -3, -1, -1, -9
1503964075104,-3, -1, -2, -3, -1, 1, 7, 1
1503964075116,3, -2, -1, 2, 1, 1, 1, 5
1503964075125,-3, -10, 1, -1, 1, -2, -7, -3
1503964075139,-1, 0, 1, 3, -1, -2, 0, 3
1503964075148,-21, 10, -4, -1, -2, -1, -17, -15
1503964075154,-6, -8, -3, -4, -2, 0, -2, 0
1503964075171,4, -14, -5, 3, -1, -1, 0, 6
1503964075177,0, 3, 2, 2, 2, 0, -3, 1
1503964075184,2, -2, -3, -4, -1, -1, 0, 2
1503964075199,3, 7, 5, 3, 1, 1, -4, -2
1503964075207,-3, 12, 4, 0, -2, -3, -4, -5
1503964075214,3, -18, -6, -4, -2, -1, 7, 5
1503964075215,-3, 6, -1, -2, 0, -1, -8, 4
1503964075229,4, 1, -1, -2, 0, -1, 1, -9
1503964075239,-3, -3, -3, -5, -2, 0, -6, -4
1503964075244,-5, -2, -1, -2, -1, -1, 5, -1
1503964075245,8, -3, 2, 1, 1, -1, -4, -1
1503964075259,-2, -4, -6, -1, -1, 1, 4, -3
1503964075267,1, 3, -5, 0, 0, 0, 4, 4
1503964075275,-10, -3, 2, 0, -2, -1, 3, -1
1503964075289,-1, -9, -7, -2, 0, 0, 0, -1
1503964075296,3, -3, 1, 0, 0, -1, 1, 0
1503964075306,-2, 2, 2, -2, -1, -1, 4, 2
1503964075319,1, 6, -1, -1, -2, -2, 4, -2
1503964075327,2, 0, -5, 0, -2, -3, -3, -2
1503964075334,3, 4, 3, 0, -3, -1, 2, 3
1503964075350,1, -5, -1, -4, -2, 0, 2, -1
1503964075356,-1, -4, 0, 0, 1, -2, 2, 0
1503964075364,-1, -2, 0, -1, -1, -2, 0, 6
1503964075379,-5, -12, -2, -1, 0, 1, -5, 1
1503964075387,-1, 1, 0, 1, -2, -2, -3, -12
1503964075394,1, -2, -4, 0, -1, -1, 1, -2
1503964075410,-5, -6, -1, 1, -1, 0, 1, 9
1503964075416,0, 3, -4, -4, -2, -2, -2, -2
1503964075424,2, 7, 2, -2, -2, -1, -10, -3
1503964075442,0, 6, 1, 2, -1, 0, -1, 1
1503964075448,2, -4, 3, -2, -3, -1, 4, 1
1503964075461,-1, 3, 7, -3, 0, 1, 2, -18
1503964075470,6, 2, 0, -2, -1, 1, 8, 10
1503964075476,-6, 2, 2, 0, 2, 0, -5, -2
1503964075477,2, -2, -3, -2, -2, -2, 0, -12
1503964075485,1, -6, -2, 1, -1, 0, -2, -9
1503964075499,0, 5, 1, 0, -1, -1, -2, 6
1503964075508,-2, 2, -4, -3, 1, 0, 3, -3
1503964075515,-3, -2, 2, 2, -1, -1, 1, 6
1503964075529,-3, -1, 1, 3, 0, -1, -10, -8
1503964075536,-1, -5, -5, -3, 0, -3, -7, -4
1503964075545,-16, -6, -2, -1, 1, -1, -1, 0
1503964075559,0, -4, -4, -2, -1, -1, -1, 6
1503964075567,6, 0, -1, -2, -1, -1, 0, -4
1503964075575,-6, -4, -3, -3, -1, -1, -1, 6
1503964075589,2, 3, 2, -1, -2, -3, -2, -4
1503964075596,1, 1, 4, 0, -1, 1, 0, 6
1503964075604,-7, 3, -2, 0, -1, 0, 8, 0
1503964075619,-4, 0, 1, 4, -1, -1, 1, 0
1503964075627,2, 6, 0, 0, -1, 1, -2, 5
1503964075634,4, 2, -2, -3, -1, 0, -7, -1
1503964075650,1, 6, -2, -3, 0, 0, 2, 6
1503964075656,-9, 2, -2, -2, 0, -3, -1, 4
1503964075664,1, 1, -1, -3, -2, 2, 3, 10
1503964075679,4, -4, -3, -1, 1, -1, -1, -5
1503964075687,-8, -4, -1, 0, -1, -1, -2, 1
1503964075694,0, -8, -3, -2, 0, -2, -4, -6
1503964075710,1, -6, 0, -1, 0, -1, -6, -14
1503964075717,-2, -4, -3, -1, -1, 2, 2, -2
1503964075724,1, -1, -2, 2, 0, 0, 1, 13
1503964075739,7, -2, -3, -2, -4, -3, 6, 0
1503964075747,-16, -4, -4, -3, 0, -2, 2, -10
1503964075754,3, 2, 0, 1, 0, 2, -2, -5
1503964075769,5, 3, 0, 0, 0, -2, 3, 2
1503964075776,-3, -1, 0, -2, -3, -2, 0, -6
1503964075784,3, 3, 0, -2, -2, 0, -1, -1
1503964075799,0, 1, 1, -1, -1, -3, -4, 4
1503964075809,2, -10, 2, 2, -1, 0, -4, -9
1503964075814,8, -6, -4, -2, 1, -1, 3, 3
1503964075830,9, 1, 0, -3, -2, -2, -9, -2
1503964075836,-5, 1, 0, 4, 0, 1, 3, 5
1503964075845,1, -3, -2, -1, -3, -1, 3, 0
1503964075859,-17, -3, -3, -3, -3, -2, 6, -1
1503964075867,-4, -3, -3, -2, -1, -1, 1, -2
1503964075877,3, 2, 2, 1, 1, -1, 2, 1
1503964075889,4, -2, 3, 0, -2, -1, -9, -7
1503964075896,7, -1, 0, 0, -2, -1, -3, -7
1503964075904,4, -4, -2, 0, 0, 0, -3, 4
1503964075919,-1, -6, 0, -3, 0, 1, 0, 11
1503964075927,-8, 2, 3, 2, 2, 0, -1, -19
1503964075934,-2, 0, -2, -1, -2, 1, -2, -6
1503964075949,-10, 1, 3, 1, -1, 0, 1, 0
1503964075956,-6, -1, -1, -1, 0, -3, -8, -1
1503964075964,0, -2, -5, -2, -3, -1, -5, 2
1503964075979,1, -20, -5, 0, 1, 0, -12, 4
1503964075987,-4, 2, -1, -1, -1, -2, 4, -13
1503964075994,2, 2, 1, 0, 1, -1, -4, -6
1503964076010,-2, -4, -4, -2, -1, 1, 0, 15
1503964076016,-9, 6, 2, -1, -3, -2, -4, -1
1503964076024,2, 0, -1, 0, 1, -1, 2, -1
1503964076039,-4, 3, -2, -2, -1, 2, 14, -1
1503964076047,2, 6, 7, -1, -2, -2, 1, 6
1503964076054,7, 2, -3, -2, -2, -1, -2, -6
1503964076069,3, 5, -3, -2, -3, -2, 6, 2
1503964076078,-8, 0, 2, 0, 0, 0, 8, -16
1503964076092,-1, -4, -2, -1, 0, 0, -4, 1
1503964076098,4, 0, -2, -3, -1, -2, -16, -6
1503964076107,-4, 5, 5, 3, -2, -2, 5, -11
1503964076121,3, 3, 6, 4, 0, 1, 9, -6
1503964076130,-1, -4, -5, -2, 0, 1, -8, 2
1503964076136,3, 7, 8, 0, -2, -1, -1, 3
1503964076152,1, -2, -2, -3, -2, -2, -4, 12
1503964076158,-1, 5, -4, 2, 3, 1, 0, 4
1503964076167,-1, -2, -3, -1, -1, 1, 7, -1
1503964076181,-1, -3, -3, 1, -1, -2, 2, 8
1503964076189,9, -2, -4, 0, 1, 2, -3, -1
1503964076196,6, 1, 0, -1, 1, -1, -2, 0
1503964076212,-4, -6, 0, -2, 0, -2, 0, -1
1503964076219,-1, -3, -2, -2, -3, -1, -2, -3
1503964076227,-3, -2, -5, 0, 0, -1, -6, -1
1503964076241,0, -12, -3, 0, -2, 0, -3, -10
1503964076249,-5, 3, 2, 2, -1, -2, -3, 0
1503964076250,-5, -4, -5, -4, -2, -2, -1, 3
1503964076256,1, 0, 0, 8, 1, 0, -2, 2
1503964076272,-2, -4, -1, -1, -1, -1, -2, -1
1503964076279,-5, -1, 4, -6, -2, 0, -6, 4
1503964076287,-4, 3, 3, 4, -1, -1, 9, 4
1503964076301,-6, -1, -5, -5, -3, -3, -3, 3
1503964076309,3, -2, 2, -4, -3, -1, -3, -11
1503964076316,2, 1, 0, 0, 3, 1, 0, 8
1503964076332,-21, -5, -4, -1, -1, -1, -5, -14
1503964076338,0, 2, 1, -1, -2, -2, -2, 1
1503964076348,10, 7, 3, -2, 0, -1, -1, 1
1503964076361,-4, -12, -8, -1, -2, -2, -9, -16
1503964076369,2, -2, -3, -2, -2, 1, 0, 9
1503964076377,2, 2, 0, 0, 0, 1, 9, 9
1503964076392,2, -3, 1, -2, -1, -2, -3, -9
1503964076398,-3, -1, -3, -5, -2, -1, 2, -1
1503964076407,0, 3, 0, 8, 2, 2, 10, 10
1503964076422,7, -6, -5, -2, -1, -3, 1, -10
1503964076429,3, 5, 5, 0, -1, -3, -4, -3
1503964076437,-2, -2, -1, -2, -1, 1, 6, 11
1503964076452,-4, -3, -4, -4, -2, -1, 0, 8
1503964076458,3, -4, -9, -2, -1, -1, -4, 0
1503964076467,7, 1, -3, -4, 0, 0, -5, 5
1503964076481,-6, -3, -4, -1, -1, -1, 5, -5
1503964076490,-5, -3, -1, 1, 0, 0, -1, -1
1503964076498,9, -1, 2, 0, 0, 0, -1, 5
1503964076514,-2, -4, -3, -3, -1, 1, -1, -6
1503964076519,-1, 2, 4, 1, 0, 0, 0, 0
1503964076527,-4, 2, 0, -1, 0, -2, 2, -5
1503964076541,-7, 0, 3, -2, -3, -2, -17, -5
1503964076549,0, -5, -6, -8, -4, -1, 4, -10
1503964076550,-2, -2, 0, 4, -2, -1, -8, -5
1503964076557,2, 1, 7, 1, 1, 0, 4, -3
1503964076572,2, -2, -4, -3, 0, -1, 6, 4
1503964076579,-2, 1, 0, 1, -1, -1, -8, 5
1503964076587,0, -1, 1, -2, -1, 1, -1, 0
1503964076601,-1, -8, -6, 2, 1, -1, 6, -6
1503964076609,2, 3, 3, 1, -1, -2, -2, -1
1503964076617,-5, -3, -1, -5, -1, -4, 3, -2
1503964076632,-14, -5, -1, -2, 0, 0, 5, -7
1503964076638,7, -2, -6, -2, -3, -2, -2, -5
1503964076648,-1, -5, -1, -4, -3, -2, -5, -3
1503964076661,-3, 11, 14, 8, 1, 2, 1, 10
1503964076669,-15, -1, -7, -1, 0, 1, 5, -10
1503964076677,-3, -5, -8, -2, -2, -1, -4, 4
1503964076692,24, 2, -1, -1, -1, -1, 1, 25
1503964076700,-9, -11, -5, -4, -3, -4, -11, -27
1503964076707,1, -11, 1, 2, -2, -2, -2, -7
1503964076722,-2, 6, 3, 3, 3, 1, 4, -3
1503964076729,4, 6, 4, 4, 2, 2, -1, 2
1503964076745,-8, 2, 1, -3, -2, -1, 2, -2
1503964076752,-2, -2, -7, -3, -2, -3, -5, -6
1503964076760,3, 1, -7, -4, 0, 0, -5, 20
1503964076767,-6, -2, -1, 3, 3, 0, -6, -6
1503964076783,-15, 0, -2, -4, -2, -1, 8, -14
1503964076789,-21, -6, 1, -1, 0, -1, -1, -8
1503964076805,32, -3, -3, -4, -2, -1, 4, 30
1503964076812,3, -1, -2, -6, -3, -2, 0, 0
1503964076820,18, 6, 3, -2, -1, 0, -3, -7
1503964076827,7, 10, 10, 2, 0, -1, -5, 2
1503964076842,-4, -3, 2, 6, 3, 1, -4, 6
1503964076850,-9, -11, -3, -6, -3, 0, 1, -1
1503964076865,-11, -8, -6, -3, -3, -4, 3, -1
1503964076872,17, -1, -2, 1, -1, -6, -9, -3
1503964076880,-5, 3, 0, -4, -2, -1, -3, -37
1503964076887,-6, 1, 4, -2, 2, 1, -4, 0
1503964076902,-10, -6, -6, 1, 0, -6, -25, -42
1503964076910,5, 4, -3, 1, 0, -1, -1, -2
1503964076926,3, -5, 2, 0, -1, 3, 6, 18
1503964076932,8, 1, -5, -2, 1, 0, 0, 6
1503964076940,-16, -3, -4, -3, -1, 3, 4, 3
1503964076947,-12, 1, 4, 3, 2, 5, 6, -3
1503964076962,-6, -1, -1, -4, 0, 1, 1, 1
1503964076969,1, -14, -3, -2, -2, -2, -3, 2
1503964076985,6, 6, 3, 2, 0, 1, 3, 21
1503964076993,-6, 2, -2, 0, -1, -1, -2, -19
1503964077000,-11, 1, -2, -2, -3, -2, 2, -14
1503964077014,-17, -4, -3, 0, -5, -3, -7, -7
1503964077024,6, 12, 6, -2, -2, -1, 2, 12
1503964077029,10, 2, 4, 1, 1, 2, 6, 13
1503964077045,0, -5, -2, 0, -2, -3, 1, 7
1503964077052,14, -3, -2, -5, -1, 0, 6, 4
1503964077053,-8, -3, -4, -5, -3, -1, -5, 14
1503964077061,-30, 2, -2, 2, 0, -6, -9, -5
1503964077075,11, 9, 7, 8, 2, 2, 7, 8
1503964077085,18, 2, -8, -5, -3, -1, -1, 1
1503964077089,22, 3, 6, 1, 0, -2, 0, -19
1503964077105,-18, -7, 0, -2, -3, -2, -7, -42
1503964077112,4, -3, -9, -5, -3, -2, -1, 2
1503964077120,10, 3, 2, 6, -5, 3, 5, 17
1503964077134,-6, -4, -9, -4, -5, -4, -5, -5
1503964077142,0, 2, 5, 1, 3, 2, 4, 7
1503964077152,-5, 0, 3, -5, -2, -3, -3, 3
1503964077165,-10, -3, -5, -3, 1, 1, 1, 11
1503964077172,2, 10, -4, -1, 0, -2, -10, -8
1503964077180,-8, 0, -4, -1, 0, 0, 2, 5
1503964077194,0, -8, 0, 2, -2, 0, 1, -4
1503964077202,17, 15, 12, 2, 0, -1, -2, -4
1503964077209,12, 7, 0, 2, -1, -1, -2, 4
1503964077232,-14, -9, -12, -4, -1, -2, -7, -14
1503964077233,3, -4, -2, -1, 0, 0, 6, 19
1503964077240,1, 0, 1, -4, -1, 0, 4, 7
1503964077254,5, 6, 6, 1, 0, 3, 2, -2
1503964077262,28, 6, 5, 8, 4, 0, -5, 7
1503964077269,-27, -6, -11, -4, -1, -3, -11, 12
1503964077287,-4, -9, -3, -7, -4, -2, -2, -13
1503964077292,-8, 5, -2, 0, 2, 5, 15, 6
1503964077300,1, 0, 7, 8, 4, 1, 1, -1
1503964077314,-24, 0, 1, 1, -1, 0, 1, -10
1503964077323,1, 11, 0, -2, 1, -2, 1, -14
1503964077329,8, -4, -1, 0, -1, -2, 2, -1
1503964077345,-10, -14, -7, 0, -2, -2, -12, -7
1503964077353,-2, -7, -5, -4, 1, -3, -8, -10
1503964077360,-16, -6, -4, -4, -3, -3, 4, 12
1503964077374,4, -5, 4, -1, -1, 0, 4, -4
1503964077382,10, 0, -1, 5, 1, 0, 0, 8
1503964077389,-17, -5, 0, 1, 2, 5, -3, -5
1503964077405,-11, -5, -5, -7, -3, -3, 3, 22
1503964077412,17, 0, -2, -3, -7, -6, -4, 3
1503964077420,3, -6, -3, -2, -7, -2, 5, -2
1503964077434,-3, -4, -1, -1, 1, 2, 2, -3
1503964077442,32, 5, 6, 0, 3, 2, 2, 13
1503964077449,-4, -19, 1, -5, -3, -7, 1, -13
1503964077465,-24, -8, -6, -2, 2, 6, -4, -13
1503964077472,6, 9, 10, 6, 3, 1, -6, -15
1503964077480,1, 9, 8, -3, 0, -2, 5, 11
1503964077495,30, 6, -5, -1, -1, -2, 1, -2
1503964077502,-15, -11, -8, 0, -2, -3, -1, -17
1503964077509,-2, 1, 3, 8, 1, -3, -9, 5
1503964077525,1, -8, -10, -5, -6, -11, 0, 0
1503964077532,-5, 0, 7, -1, -2, 0, -9, 7
1503964077540,12, 14, 4, 5, 3, 4, -4, 6
1503964077555,0, -1, -7, -1, 0, -6, 7, 4
1503964077563,6, -7, -1, -5, -3, -3, -7, -29
1503964077569,-5, -6, -8, -4, -1, 6, 6, 3
1503964077585,20, 13, 5, 0, 0, -5, -13, 5
1503964077592,-8, -1, 3, 5, 0, 2, 3, 6
1503964077600,13, -2, -2, -3, -2, -3, 9, -6
1503964077614,-4, -1, -5, -9, -2, 5, 26, 1
1503964077623,-21, 4, 0, 3, -2, 1, 5, -9
1503964077630,-4, -4, -5, -2, -3, -7, -26, -15
1503964077645,-16, -7, 2, 1, -3, 0, -7, 4
1503964077652,0, 4, -8, -5, -2, 0, 3, 3
1503964077660,2, -7, -4, -1, -1, 0, 5, 1
1503964077674,35, 4, 4, -2, -2, 0, 0, 0
1503964077682,-46, -10, 1, -4, -5, -6, -2, -2
1503964077689,3, 1, -2, -8, -5, -6, 14, 15
1503964077705,12, -1, -4, 3, 4, 3, -5, -14
1503964077712,-10, -3, -1, 3, 0, 0, 1, -15
1503964077720,20, 3, -1, -3, 0, 0, -9, 22
1503964077734,2, -1, 0, -1, -1, 0, -5, 21
1503964077749,-23, 6, -7, -5, -1, 2, -1, 20
1503964077750,-60, 1, -9, -1, 0, -3, -4, -35
1503964077765,6, -3, 4, -3, 1, 0, -18, -24
1503964077772,24, -10, 5, 2, 2, 1, -1, 15
1503964077780,1, 3, -2, 0, -2, -2, 7, -21
1503964077794,16, 3, 0, -3, -1, 3, -5, 8
1503964077802,30, -3, 6, -2, 2, 2, 8, 17
1503964077809,-24, 14, -3, 4, 0, 0, -8, -28
1503964077825,14, 22, 12, -15, -2, -1, 0, -7
1503964077832,-63, 4, -15, 4, 1, -4, -12, 14
1503964077840,-14, -9, -13, 0, -1, 2, -6, -8
1503964077858,39, -3, 4, 0, -2, 0, 1, 12
1503964077862,0, -12, -4, -4, -4, -4, 9, -8
1503964077869,-18, -18, -6, 0, -3, -10, -22, -60
1503964077885,38, 15, 11, 2, 1, 3, 4, 8
1503964077892,-9, 3, -6, -1, -3, -4, 9, -13
1503964077900,0, -4, 0, 7, 0, 0, 6, 1
1503964077914,-9, -4, -2, -9, -1, -2, 7, -8
1503964077924,-14, 6, 6, 2, -2, -4, -7, 38
1503964077937,10, 15, 4, -1, -3, 1, 2, 21
1503964077945,4, 2, 1, 5, 2, 2, 13, 7
1503964077959,17, 2, -2, 0, -1, 1, 5, 25
1503964077967,8, -11, -5, -14, 0, -1, 3, 12
1503964077974,6, -11, 9, 17, 2, 3, 4, -36
1503964077982,-7, -6, -20, -2, -1, -4, 9, -6
1503964077997,33, 3, 1, -3, 1, 1, 9, 40
1503964078005,-35, -12, -5, 3, 0, -2, -16, -51
1503964078011,-5, -11, -1, -4, 3, 4, -1, -12
1503964078028,0, 4, 9, 4, 2, 2, -6, -23
1503964078034,4, -11, -9, -9, -4, -4, -11, 28
1503964078042,16, 5, 5, 8, -2, 2, 5, 7
1503964078058,8, -4, -3, -3, 0, 2, 3, 6
1503964078065,22, -7, -4, -4, 0, -1, 4, -4
1503964078072,22, 20, 8, 11, 1, -3, -1, -15
1503964078087,11, 8, -12, -20, -3, -1, -2, 26
1503964078095,-5, -9, 14, 9, 0, -3, 4, -4
1503964078102,8, -1, -1, -7, -4, -3, 2, 7
1503964078117,-10, 6, 27, 4, 4, 2, -2, 2
1503964078128,-17, -22, -15, 1, 1, -3, -9, 4
1503964078132,-13, 1, -17, -8, -2, -1, -17, -52
1503964078147,-31, 5, 4, 4, -3, -2, -7, 20
1503964078154,26, 8, 0, -12, -3, 2, 10, 44
1503964078165,-22, -6, -3, -7, -4, -2, -11, -20
1503964078177,-7, -9, 0, 23, 2, 1, 15, 16
1503964078185,1, 0, -10, 1, -1, -2, 3, -8
1503964078192,-44, -5, -18, -15, -5, -2, -2, 4
1503964078207,-9, -4, -3, 3, 0, -6, -27, -39
1503964078214,26, -2, -6, -4, -1, -2, -1, 10
1503964078222,-5, -10, 7, 5, 2, 4, 8, 4
1503964078237,4, 14, 4, 3, 2, 0, -5, 1
1503964078245,17, 3, -3, 2, 0, -2, 0, 4
1503964078252,-24, -15, 11, -12, -6, -4, -9, -13
1503964078267,-6, 11, 1, -13, 1, 3, 12, 7
1503964078274,4, -8, -13, 5, 1, -2, -9, 0
1503964078282,5, 7, 5, -7, -4, -1, 3, 12
1503964078297,0, -1, 9, 3, 2, 1, 1, 12
1503964078305,-18, 6, 12, 7, -3, -7, -13, -26
1503964078312,10, 1, -1, -5, 0, 0, 0, 0
1503964078327,-52, -14, -15, 8, 3, 0, 4, -3
1503964078335,0, -9, -12, 5, -4, -3, 0, -1
1503964078342,10, -7, -2, 7, 0, -1, -9, 1
1503964078357,6, 12, -10, -11, -1, -1, -1, -8
1503964078366,20, 0, 0, 9, -1, 2, 8, 9
1503964078372,-11, -7, 10, -6, -1, 0, -10, -22
1503964078387,-8, 3, -7, -13, -3, -4, 5, -23
1503964078395,1, 7, -15, 23, -1, -2, -10, 6
1503964078402,-7, 0, -17, -11, 3, 1, -5, 12
1503964078417,-2, -5, 3, -12, -1, -4, -1, -16
1503964078428,28, 5, 2, -14, -4, 1, 4, 19
1503964078432,-9, -2, 5, 10, 3, 2, 6, 5
1503964078447,5, -3, 11, 13, 2, 1, 1, 4
1503964078454,-50, -6, -4, 5, -4, -4, 1, -15
1503964078462,7, -6, -4, -3, -2, -2, -5, -20
1503964078477,25, -15, -7, -3, -2, 0, 3, 17
1503964078485,-5, 13, 5, 14, -1, 0, 7, -7
1503964078492,14, 8, 20, 1, 1, 1, 4, 5
1503964078507,28, -2, -9, -26, -3, 3, -6, 32
1503964078514,8, -2, 9, -4, -2, -3, -5, 11
1503964078522,0, -1, 0, 3, 0, 1, 2, 4
1503964078537,-6, -5, -9, -13, -1, -1, -4, -12
1503964078545,14, 5, 18, 27, 5, -3, 4, 8
1503964078552,35, 27, -21, -22, -5, -2, 3, -8
1503964078567,4, -2, 37, 22, -1, 1, 11, 3
1503964078574,-4, -9, -17, -1, -2, -1, -11, -23
1503964078589,-8, 6, -5, 7, 2, 0, -5, 3
1503964078597,-34, 1, 1, -19, -3, -1, 2, -2
1503964078605,-15, 23, 11, -8, -2, -2, 0, -29
1503964078612,31, 13, 9, 9, 2, 1, 3, 22
1503964078628,-16, -5, 2, -14, -1, -3, -14, -19
1503964078634,6, -21, 3, -9, -3, -3, -4, -17
1503964078642,-5, -4, -8, 7, -2, 0, 2, 12
1503964078657,-25, 3, -5, 3, 1, 0, 3, 3
1503964078665,-9, -14, -29, -25, -4, -1, -3, -4
1503964078672,-2, -8, -2, 3, 2, 1, 4, 15
1503964078697,-6, 8, 2, -9, -2, -3, -11, 2
1503964078702,-1, -29, -17, -7, -6, -6, -14, -21
1503964078717,-8, 8, -5, -6, -3, 0, -1, 1
1503964078725,-2, 3, -15, 10, 0, 1, 1, 19
1503964078733,11, -1, -12, 0, 1, -2, 6, 0
1503964078747,16, -13, -4, -5, -1, -1, 3, 20
1503964078754,-27, -20, -8, 8, 1, 0, 3, 0
1503964078763,8, 3, 10, -1, -3, -1, -4, -2
1503964078777,-2, 3, 9, 13, 1, 1, 0, 1
1503964078785,-12, -4, 11, -4, -2, -1, -1, -15
1503964078792,8, 6, 43, 7, -1, 1, 2, 3
1503964078807,-31, -11, -20, -6, -3, -5, -2, -58
1503964078814,0, -3, 0, 7, 1, -1, -10, -14
1503964078822,10, 19, 4, 4, -4, 1, 9, 29
1503964078837,9, 2, -4, -14, -3, -1, 0, 3
1503964078845,-12, -8, -17, 11, -4, -4, 1, 9
1503964078852,9, 1, 16, 15, 1, 1, -2, 7
1503964078868,-1, -15, -15, -10, 0, -1, 2, 0
1503964078874,-23, -1, 2, -4, -3, 1, 5, -1
1503964078889,1, 0, 10, 21, 4, 2, 7, 0
1503964078897,-6, -30, -31, -21, -8, -7, -14, -20
1503964078905,8, -1, 11, 9, -1, -1, 1, 18
1503964078919,4, 16, -4, 8, 1, 1, -2, -8
1503964078927,4, 8, -4, -37, -3, -2, 7, 7
1503964078935,6, 7, 38, -3, 1, -3, -4, 9
1503964078949,0, 5, 2, -33, -2, -1, -2, 5
1503964078957,7, 0, 1, 11, 3, 0, 6, 18
1503964078966,-1, -1, -12, 1, -1, -2, -1, -17
1503964078980,2, 16, 21, -2, -1, 0, 1, -7
1503964078988,-7, -10, -3, -4, -1, 0, -1, 6
1503964078994,-4, -11, -6, 29, -1, -1, -5, -1
1503964079010,-5, 18, 8, 8, -1, 2, -1, 0
1503964079017,0, -8, -23, -31, -11, -5, 6, 5
1503964079025,18, 21, 15, 19, 2, 0, -8, 6
1503964079040,-4, -4, -27, -22, -6, -5, -4, 10
1503964079052,-2, -9, 13, 14, 1, -3, -2, -1
1503964079055,1, -3, -1, 30, 5, 2, 1, 0
1503964079070,4, -5, 4, -3, -2, 0, -1, 6
1503964079077,-3, -19, -26, -44, -6, -2, 1, -6
1503964079085,-5, 8, 74, 79, 8, 3, -13, -20
1503964079100,-10, -1, -15, -14, -5, -3, 4, -19
1503964079108,-3, -6, -30, -13, -2, 0, 7, 3
1503964079114,4, -5, -5, -8, -1, -2, -12, -22
1503964079129,0, -15, -25, -24, 2, -2, 2, 10
1503964079138,7, 32, 45, 67, 7, 8, 23, 23
1503964079145,12, -9, -46, -40, -8, -3, -4, 10
1503964079159,2, -5, -14, -7, -2, 0, 0, 8
1503964079167,-7, -10, -23, -29, -3, -1, 12, 1
1503964079174,-21, -2, 57, 26, 4, -1, -10, -12
1503964079189,-4, -14, -22, -36, -10, -3, -10, 15
1503964079197,33, 4, 12, 44, 10, 8, 5, -23
1503964079205,-14, -11, -9, 2, -1, -3, 0, -14
1503964079219,6, -19, -29, -34, -2, 1, -5, -4
1503964079227,-2, 10, 24, 29, 6, 5, 10, -3
1503964079234,-7, 5, -4, -19, -7, -5, 5, 6
1503964079249,-2, -7, -11, 3, 1, 2, -1, 5
1503964079256,-2, -6, -6, -3, -1, 0, 0, -15
1503964079257,-4, 3, -7, -27, -4, -1, 6, 19
1503964079272,-16, 8, 2, 7, -5, -4, -5, -20
1503964079279,-20, -2, -4, 29, 3, 0, 1, -22
1503964079303,12, 1, 26, 1, 1, 1, 2, -19
1503964079306,-29, -22, -29, -19, 2, -2, 6, -51
1503964079311,-6, 17, 20, 19, 1, 0, 2, -3
1503964079317,0, 12, 0, 13, -1, -2, -3, 14
1503964079325,28, -4, -34, -21, -3, 0, -4, 44
1503964079339,-30, -6, 1, -6, -3, -3, -15, -15
1503964079340,9, 4, -3, -3, 1, 0, 4, 22
1503964079347,-10, 5, 17, 5, 3, 2, -3, -16
1503964079348,-8, 3, 5, 7, 0, 0, 0, -63
1503964079354,-8, -9, -29, -29, -10, -5, -10, 17
1503964079370,-7, 7, 20, 20, 3, 1, 1, -13
1503964079377,13, -7, -8, -20, 2, 0, -14, -32
1503964079392,3, 1, 54, 11, 6, 3, 0, -2
1503964079404,23, 8, 6, -2, -1, 1, 8, 39
1503964079408,12, -24, -42, -28, -8, -7, -4, -27
1503964079414,-7, -4, 10, -12, -3, 1, 4, -6
1503964079429,-16, 7, 34, 79, 9, 0, -13, 23
1503964079437,-20, -3, -12, 0, -2, -4, -22, -39
1503964079445,7, 2, -11, -29, -5, 0, 7, 14
1503964079459,10, 12, 8, 12, 1, -1, 2, 46
1503964079468,-5, -6, -22, -11, -1, -3, -1, -13
1503964079474,12, 4, -2, -5, 0, 1, 4, 18
1503964079489,-11, -9, -13, -19, -5, -1, -7, 13
1503964079497,-10, 3, 11, 23, -1, -1, 1, -11
1503964079512,8, 24, -7, -14, -1, 0, -10, 3
1503964079518,4, -6, 0, -6, -2, 0, -1, 0
1503964079527,-5, -5, 0, 13, -2, 0, 4, 1
1503964079536,-43, 6, 10, 4, 2, -2, -11, -12
1503964079549,2, -13, -9, -23, -4, -4, -7, 5
1503964079557,5, -2, 13, 9, 2, -3, -5, 3
1503964079565,7, -6, -10, -18, -1, -1, 16, 42
1503964079579,3, 1, 2, 12, 2, 1, -7, -12
1503964079580,-7, -5, -2, 0, 1, -2, -3, -7
1503964079587,10, -14, -13, 1, -1, -2, 7, 16
1503964079594,-8, -21, 6, -1, -2, 0, -5, -31
1503964079610,3, -2, -2, -3, -3, 0, -5, -9
1503964079617,14, 7, -13, 16, 2, 4, -25, -12
1503964079625,-2, 9, -3, 18, 1, 0, 0, 2
1503964079640,12, 6, -16, -14, -3, 2, 12, 15
1503964079648,-18, -12, 21, 2, -1, 0, 3, -10
1503964079654,-1, 5, 5, -16, -3, -5, -10, -43
1503964079670,-8, 21, 15, 11, 4, 4, -2, -8
1503964079678,-10, 7, -4, -5, -2, 0, 12, 22
1503964079685,4, -6, -20, -5, -3, -1, 3, 4
1503964079699,13, 2, -7, -4, -4, -2, 3, -3
1503964079707,-2, 1, 12, 2, 1, 0, -3, -5
1503964079714,0, 6, 5, 7, 3, 1, -1, -5
1503964079715,11, -5, -5, -3, -4, -4, 6, 30
1503964079729,7, 0, -5, 0, 0, 3, 2, -1
1503964079730,-1, -8, -10, -25, -3, -3, -2, -24
1503964079737,6, 27, 37, 13, 5, 1, 7, 6
1503964079745,4, -22, -3, 1, 2, 0, 3, 6
1503964079746,-5, -3, -6, -11, -2, -1, 0, 1
1503964079759,4, -18, -6, 8, 0, -1, -1, 0
1503964079771,-23, -3, 0, -7, -2, 0, -6, -3
1503964079774,10, 5, 18, 9, 2, 1, -2, 6
1503964079789,8, -2, -4, 9, 2, 1, 5, 5
1503964079797,0, -21, -17, -10, -6, -2, 2, -7
1503964079812,5, 12, 4, 7, -2, -1, -2, 13
1503964079819,0, -1, 5, 19, 6, 3, 9, 11
1503964079827,1, 0, -10, -5, 0, -1, 3, -5
1503964079843,-10, -1, -8, -3, 1, 0, -1, -7
1503964079850,-22, 0, -5, 4, -2, -2, -11, -13
1503964079857,1, 15, 8, 7, -1, -1, -8, -5
1503964079872,1, -2, 3, 10, 3, 0, 5, -1
1503964079880,-17, -8, -22, -26, -6, -3, 1, -10
1503964079887,9, 6, 10, 14, 1, -3, -4, 8
1503964079901,6, -3, 10, 6, 1, 1, 11, 18
1503964079909,17, -6, -5, -21, -7, -3, -8, 2
1503964079917,-3, 10, 17, -4, 1, 1, 1, -3
1503964079932,2, 2, 5, -1, 1, 0, -8, -18
1503964079940,4, -12, -21, -12, -3, -4, -6, -3
1503964079947,5, 4, 1, -7, 0, 2, 7, 15
1503964079961,7, 2, 28, 18, 1, -1, 0, 5
1503964079972,10, -14, -6, 4, 1, 0, -1, -13
1503964079977,-22, -1, -18, -16, -4, -3, -2, -12
1503964079992,-10, -7, -2, 1, -1, -2, 2, -8
1503964079999,-1, -11, -9, -7, -2, -3, -24, -4
1503964080008,-7, -1, -6, 1, 0, 1, 10, -18
1503964080021,15, 6, -5, 25, 2, 1, 12, 6
1503964080031,7, 11, -2, -2, 1, 1, -8, 17
1503964080039,11, -20, -14, -25, -3, -1, 6, 9
1503964080052,-10, 12, 22, 33, 4, -3, -9, -13
1503964080059,2, 4, -2, -5, -2, -1, -3, 4
1503964080067,0, 0, -3, -9, -3, 0, 0, 12
1503964080082,-28, 3, -2, -5, -1, -5, -7, -8
1503964080089,5, -12, -11, -1, -1, 1, -1, -3
1503964080097,-7, -4, 9, 3, 1, -2, -2, -9
1503964080112,-3, -12, -13, -16, -1, -2, -2, 9
1503964080119,3, 5, 7, 11, 3, 3, 11, 2
1503964080128,-32, 1, 3, -5, -3, -5, -7, -3
1503964080141,-1, 6, -7, -2, -2, -2, 0, -6
1503964080156,11, 3, -12, -13, -5, -1, 7, 12
1503964080157,-15, 2, 1, 6, 1, 0, 4, 3
1503964080173,-8, -6, -2, -6, -3, -2, 6, -4
1503964080180,0, -3, -9, -7, -2, -2, -8, 4
1503964080187,5, 1, -3, 1, -2, -3, -6, -9
1503964080201,10, -1, -13, -7, -1, -1, 0, -2
1503964080209,3, 6, 22, 14, 2, 0, -2, -5
1503964080217,9, -1, 6, -11, -2, 1, 4, 5
1503964080232,0, -1, 12, -4, 0, -4, -13, -17
1503964080240,9, -2, -2, -3, 1, -1, -11, 2
1503964080249,-6, -1, -13, -16, -2, -1, 3, 12
1503964080261,6, 9, 3, 7, 1, 0, -13, -10
1503964080269,-21, -12, -11, -7, -4, -2, -4, -20
1503964080277,-4, 7, 11, 4, 2, -2, 1, 1
1503964080292,-9, 1, 15, 7, 0, -2, 0, 8
1503964080299,-3, -9, -12, -11, -6, -3, 1, -12
1503964080308,13, 1, 2, 12, 4, 3, 8, 0
1503964080321,1, -12, -15, 1, -1, 0, 2, 13
1503964080329,-2, -4, -14, -5, -4, -1, 6, 3
1503964080337,-1, -5, -3, -18, -4, -1, -1, -3
1503964080352,10, 7, 25, 24, 5, 4, -2, 3
1503964080359,6, -2, -7, -3, -5, 0, 5, 4
1503964080367,-3, 0, 0, 7, 0, 1, 11, 20
1503964080382,-13, -3, -10, -1, -3, -6, -10, -7
1503964080390,3, -4, -14, -8, -3, 0, 3, -5
1503964080398,0, 1, 9, 3, -1, -1, 0, -2
1503964080413,4, 0, -8, -1, 0, 1, 4, 6
1503964080419,-2, 1, -6, 3, 1, 1, -5, -10
1503964080428,23, 14, 13, -1, 1, 2, -3, 2
1503964080442,-34, -8, -6, 0, -4, -3, 0, -13
1503964080450,-4, -12, -9, -6, -3, -3, -8, -4
1503964080464,6, 2, 0, -1, -1, 0, 10, 15
1503964080472,3, -4, -3, -6, -2, -1, -3, -2
1503964080479,-4, -3, 2, 2, 2, 3, 2, 7
1503964080487,-4, 6, -1, -3, -3, -1, -2, -5
1503964080501,10, 4, 3, -1, 0, 0, 1, 1
1503964080509,-1, 3, -5, -3, -2, -1, -1, 4
1503964080517,15, 5, 12, 9, 2, 2, 0, -5
1503964080532,-3, -12, -9, -8, -1, -1, 3, -10
1503964080539,7, 5, 0, -1, 1, -1, -8, 0
1503964080555,-7, 2, -3, 4, 0, -3, -6, 0
1503964080561,-14, -12, -11, -6, -2, -1, 0, 1
1503964080569,-1, -11, -7, 7, 1, -1, 5, 4
1503964080584,-3, -17, -7, 2, 0, 0, -3, -10
1503964080592,17, 4, 5, -6, 1, -1, 0, 7
1503964080599,-9, 5, 9, 9, 0, 1, 8, -7
1503964080609,-5, -12, -6, -2, -3, -6, -10, -6
1503964080621,5, 4, -7, -7, -2, -2, 1, 8
1503964080629,-8, 15, 15, 3, 0, 0, 0, -2
1503964080637,-7, -4, 5, -11, -1, 0, 5, -1
1503964080652,-15, 5, 1, 2, 2, 1, -1, 2
1503964080659,17, 3, -2, 1, 0, 3, 1, 5
1503964080667,-12, -2, -1, -2, -1, 0, 0, -5
1503964080681,-4, 6, 4, 6, 2, 1, -3, 5
1503964080689,4, -2, 3, 0, -3, 1, 5, 6
1503964080697,1, 2, 0, -1, -3, -4, -11, -6
1503964080712,7, -4, -11, -6, -1, 1, 0, -2
1503964080719,-5, -2, 0, 7, -3, -3, -3, -11
1503964080734,-8, 3, -3, 1, -1, 0, 2, 5
1503964080742,7, 5, 0, -1, -4, -5, -11, 17
1503964080749,-7, -2, -3, -6, -4, -2, -7, -3
1503964080764,-5, -1, 0, -3, 0, -1, -3, -7
1503964080772,8, 2, 3, 0, -1, -1, 1, -2
1503964080779,-3, 5, -2, -3, -3, 0, 2, 3
1503964080780,24, 4, -2, -2, 1, 0, 4, 1
1503964080794,7, -3, 4, 2, -2, -2, -4, 3
1503964080801,-1, 5, 4, 1, -1, 0, 1, -16
1503964080811,3, -1, -1, -2, -1, 0, -3, -3
1503964080823,-6, -2, 0, 1, 1, 0, 7, 8
1503964080832,-4, -6, -2, 1, 1, -2, -8, -2
1503964080839,-2, -10, -5, -6, -3, -2, -5, -12
1503964080854,10, 0, -1, -3, -2, -1, 2, 10
1503964080861,-14, -2, -1, -2, -1, 0, 2, -6
1503964080869,11, 1, -5, -3, -1, -1, 0, 8
1503964080870,8, 10, -4, 1, -1, -1, 0, -10
1503964080883,-17, -5, -3, 0, 1, -1, -2, -10
1503964080892,-2, 4, -2, -1, -3, -2, 1, 3
1503964080899,9, 3, 3, -4, -1, 0, -3, 7
1503964080915,-6, -14, -5, 0, 0, -1, 3, 0
1503964080921,13, -1, -2, -2, -1, 0, -1, 12
1503964080929,13, 1, 10, 8, 1, 0, -1, -7
1503964080945,-18, -19, -8, -2, 0, -3, -4, 4
1503964080952,0, 1, 3, -5, -1, 0, 2, 4
1503964080959,9, 4, -1, -1, -2, -3, 5, 2
1503964080974,-1, -1, 0, -2, -1, -1, -1, 10
1503964080981,-1, -1, -4, -2, -2, 1, 2, 1
1503964080989,-10, -1, 1, 6, 1, 1, -9, 2
1503964081004,-24, -3, -1, 2, -2, -1, -6, -20
1503964081012,2, -1, -4, -6, 0, -1, 0, -6
1503964081019,16, 15, 4, 1, -1, 2, 9, 16
1503964081034,-7, -5, -7, -4, -2, -3, -2, 0
1503964081041,4, 5, 7, -5, -2, -1, 1, -5
1503964081050,-3, 0, 1, -3, -3, -6, -9, -19
1503964081064,10, -3, 5, 6, 1, 1, -3, 11
1503964081072,-5, -5, -7, -3, -1, -2, 4, -14
1503964081079,-4, -4, -6, -3, -2, 0, -3, 6
1503964081094,-6, 2, 3, -1, 0, 0, -2, 1
1503964081101,-3, -1, 2, 1, 2, 0, 2, -10
1503964081109,9, 4, 0, 3, -1, -2, -4, 1
1503964081124,0, -3, -1, 2, 0, -2, -2, 2
1503964081132,-6, -18, -4, -5, -2, -1, 4, -8
1503964081139,-1, -15, 2, -3, 0, 0, -3, 0
1503964081155,8, 7, 7, 2, 3, 3, 12, 13
1503964081161,-10, 2, -6, -6, -3, -2, -15, -24
1503964081169,5, -1, -2, 2, -2, 2, 9, 16
1503964081185,0, 7, 2, 0, -2, -2, 1, -16
1503964081192,-3, 0, 0, -3, -2, -1, -4, -5
1503964081199,1, -2, -6, 1, 2, 0, 1, 12
1503964081214,1, 5, 1, -1, 1, 0, -1, 6
1503964081222,0, 6, 4, 0, -1, 0, -2, 4
1503964081229,-16, -6, -2, -3, 1, -1, -5, -2
1503964081243,0, -8, -4, -2, -2, -2, 2, 2
1503964081252,-14, 2, 1, 3, -2, 0, -3, -13
1503964081259,1, 0, -11, -2, -3, 0, -4, 12
1503964081274,5, -1, -5, 1, -2, 0, 2, 3
1503964081281,-1, 2, 1, -3, -1, 0, 6, -2
1503964081289,3, 4, 4, 5, 2, 2, 5, 6
1503964081303,-26, -14, -8, -2, -2, -3, -7, -14
1503964081313,0, 0, 0, 2, -2, -2, -4, 1
1503964081319,0, 8, 1, -4, 0, 1, 2, 8
1503964081334,-8, -7, -8, -5, 0, -2, -4, -2
1503964081341,7, -1, -1, 1, -2, -1, 6, 6
1503964081350,3, -3, -3, -2, -4, 0, -6, -7
1503964081364,2, 13, 6, 4, 0, -2, -1, -4
1503964081372,8, -8, -6, -5, -1, -1, 0, 4
1503964081381,3, 3, 0, -4, 0, 0, -2, -10
1503964081394,4, 2, 2, 6, 1, 0, -3, -2
1503964081401,-9, -5, -5, 1, -1, -1, 4, 10
1503964081410,-11, -3, -4, -8, -3, -1, 4, 2
1503964081424,-11, 3, 2, 5, 0, 0, 4, 8
1503964081432,-6, -4, 0, -4, -1, -2, -6, -3
1503964081439,6, -4, 1, -3, 0, 0, -3, -4
1503964081455,6, 14, 11, 8, 0, 0, -4, -7
1503964081461,2, 0, 1, -3, -2, -2, 4, -1
1503964081470,13, 5, -1, -3, -1, 0, -2, -1
1503964081484,20, 5, 3, 4, 0, 1, -2, -9
1503964081492,-24, -1, -2, -4, -2, -2, 0, -9
1503964081499,11, -8, -4, -3, -2, -2, -16, -6
1503964081516,-14, -2, -5, -1, -2, -2, -4, 0
1503964081522,-10, -18, -4, -5, -3, 0, 3, 11
1503964081529,2, 4, 8, 4, 2, 1, 3, -2
1503964081543,6, 8, 5, -3, -1, -3, -3, -4
1503964081552,24, -6, 0, 1, 0, 0, 10, 5
1503964081559,4, -3, -3, 7, 2, -1, -2, -5
1503964081574,2, -3, -8, -6, 0, -2, -5, -9
1503964081583,-4, -2, -3, -2, -2, 0, 2, -3
1503964081590,-2, -2, -1, -4, -3, -2, 0, 6
1503964081604,9, -3, -4, -6, -1, -2, 1, 0
1503964081619,0, -11, -1, 4, 0, -2, -7, -14
1503964081620,3, -8, 2, -1, -3, -3, -10, -14
1503964081634,22, 0, -9, -7, -3, 1, 8, 4
1503964081641,-3, 5, 2, 4, 1, 1, 6, 9
1503964081650,-5, 3, 3, 3, -1, -1, -5, -3
1503964081663,-6, 0, -2, -6, 0, -2, -1, -4
1503964081672,-4, 2, -4, -3, 0, 0, 2, 7
1503964081686,-7, 6, 3, 6, 1, -2, -1, -13
1503964081694,-2, -1, -2, -1, 0, -2, 0, 2
1503964081701,-2, -7, 0, 1, -1, 2, 0, 4
1503964081717,-5, -1, -5, -5, -1, -1, 0, -1
1503964081726,8, 5, 1, 1, -2, -2, 1, -1
1503964081732,3, -2, -1, -4, 0, -2, -5, 1
1503964081746,6, 0, -2, -6, 0, -3, -19, -6
1503964081755,5, 6, 7, 17, 2, 0, 5, 4
1503964081761,-9, -4, -5, -1, -1, 0, 8, 12
1503964081777,-22, -2, -5, -9, -3, -2, -7, -2
1503964081784,-36, 2, -2, 1, -3, -2, -2, -18
1503964081792,-3, 1, -3, -5, -4, 0, 2, 0
1503964081806,9, 6, 7, 7, 3, 3, 2, 9
1503964081814,-1, -8, -5, -5, -3, -1, 1, 0
1503964081821,6, 1, 1, -1, -1, -1, 0, 2
1503964081837,-21, -1, 5, 2, 1, 1, -4, -10
1503964081843,4, -4, -9, 1, -3, -1, -4, -3
1503964081852,12, 0, 2, -3, 0, -2, -4, 5
1503964081866,5, -8, -6, -4, -1, 0, 11, -2
1503964081874,11, -3, 1, 1, -1, -2, -8, -14
1503964081881,1, -3, -4, -3, -2, -3, -13, -6
1503964081897,0, 0, 0, 0, -1, 1, 0, 2
1503964081903,-1, 0, 2, -2, 0, -1, 13, 9
1503964081912,-7, -4, -3, -1, 1, -1, -7, -11
1503964081927,-5, -3, -7, -2, -2, -2, -1, -5
1503964081934,4, -5, 3, 4, 0, 3, 3, 5
1503964081949,-13, -2, 0, 2, 2, 1, 3, -7
1503964081957,3, -1, -7, -6, -2, -2, -2, -3
1503964081965,2, -3, -2, 3, -2, -1, -2, 3
1503964081971,1, 1, -2, 0, -1, -1, 4, 5
1503964081987,-2, -1, 0, -3, -1, -1, 3, 0
1503964081994,1, 6, 2, 1, 0, -1, 0, -7
1503964082009,-4, 2, -1, 0, -1, 0, -1, 6
1503964082020,-8, -2, -4, -6, -4, -2, -7, -11
1503964082025,3, 4, 5, 9, 1, 2, 0, 5
1503964082032,-4, 4, -2, -4, -1, 0, 2, 10
1503964082048,-2, 0, 2, -1, 1, 0, -4, -1
1503964082054,2, 3, 2, 4, -1, 1, 4, 12
1503964082069,-10, 3, 3, -2, -1, 0, 5, 8
1503964082077,3, -6, -4, 1, -1, -1, -2, -4
1503964082088,2, -3, -10, -4, -2, -2, -2, -14
1503964082092,-2, 0, -3, -5, -1, -1, 1, -6
1503964082107,9, -5, 1, -9, -2, -1, -4, 11
1503964082114,-19, 1, 6, 4, 2, -2, 7, 16
1503964082130,-4, 1, -1, -5, -1, 0, -2, -7
1503964082137,3, 3, -2, 1, 0, -1, 1, -2
1503964082145,1, 4, 0, 1, 0, -2, 4, 6
1503964082153,2, 2, 4, 6, 0, -1, -1, 2
1503964082167,0, -7, -6, -2, -2, -1, -6, -11
1503964082174,1, 7, 2, -6, -1, -1, -2, -3
1503964082190,-1, 2, -2, 1, -1, -2, -1, 2
1503964082198,3, -7, -7, -3, -2, -2, -1, -3
1503964082205,-26, -2, 6, 0, 1, -3, -10, -31
1503964082211,5, 4, -3, -6, -1, -2, -2, 5
1503964082212,-2, -3, 3, 1, -1, 0, -4, -15
1503964082227,10, -1, -1, -4, -1, 0, 3, 20
1503964082234,-3, -5, -4, -3, -3, -4, 0, -1
1503964082250,4, 1, 3, 5, 0, 1, 0, 7
1503964082258,1, -12, -4, -2, 1, 0, 3, 3
1503964082265,5, 2, 2, -2, -1, -1, 2, 11
1503964082271,-22, 0, 4, 3, 0, 0, -5, -10
1503964082289,5, -1, 4, 4, -1, -1, -3, -3
1503964082294,15, 9, 5, -3, 0, 0, -1, 3
1503964082310,-6, -4, -6, -3, -1, -1, -3, -8
1503964082316,16, -9, -7, -6, -1, 0, 9, 0
1503964082326,10, 2, 3, 4, -1, -3, -1, -4
1503964082332,3, 0, -1, 1, -1, 1, -1, 10
1503964082347,-1, -2, -4, -5, -1, 1, 7, 0
1503964082356,5, 7, 4, -2, -1, -1, -2, 8
1503964082370,-7, -5, -1, 0, -2, -3, -4, 9
1503964082376,-4, -4, -6, -5, -2, -3, -6, -16
1503964082385,0, -1, 0, -1, 1, 0, -1, -5
1503964082392,-4, 0, 2, 6, 1, -1, -7, 9
1503964082407,-6, 1, 0, -3, -3, 1, 3, 4
1503964082414,-15, 0, -3, -1, 0, 0, -8, -13
1503964082430,-1, 1, -3, -3, 1, -1, -1, -5
1503964082436,11, 3, -4, -3, -2, 1, 6, 5
1503964082445,4, 0, -1, -7, -2, -2, -7, -7
1503964082451,-4, 5, 2, 5, 1, -1, 2, -6
1503964082467,2, 5, -2, -2, 0, 3, 1, -4
1503964082474,-8, -3, 0, 1, 0, 0, 0, 12
1503964082491,-30, -4, -2, 0, -2, -2, -3, -1
1503964082497,-2, -3, -4, -6, -2, -2, -2, 0
1503964082505,4, 1, 3, 7, 0, 0, -3, 2
1503964082512,-6, -6, 2, -6, -3, -4, 2, -4
1503964082527,21, -4, 1, 2, 1, -1, 0, 3
1503964082534,2, -4, -1, 0, 0, 1, 0, 8
1503964082550,8, 1, -5, -1, -2, -2, 1, -7
1503964082557,-11, -14, -8, -2, -3, -1, 0, -11
1503964082565,-5, 2, 0, 1, -1, 1, 1, 4
1503964082571,-4, -3, -2, 7, 0, 0, -3, 3
1503964082590,5, -2, -7, -6, -2, -2, 2, 7
1503964082594,0, 3, 0, -1, -1, -1, 3, 10
1503964082609,1, 2, -2, -3, -2, -3, 0, 2
1503964082616,7, 10, 8, 2, 2, 0, -2, -1
1503964082625,-5, 3, 8, 3, 1, 2, 9, 6
1503964082639,3, -5, -2, -3, -3, -2, -4, -8
1503964082647,1, -3, 2, -1, 1, 0, -1, -4
1503964082654,11, 1, -1, -3, -1, -1, -1, -10
1503964082670,2, -9, -1, 2, -1, -2, 4, 5
1503964082676,0, -2, 5, 3, -2, -1, -16, -8
1503964082685,3, 0, -3, 0, 0, -2, -6, -3
1503964082699,-9, 4, -2, 0, 2, 0, 2, -5
1503964082707,3, 0, 0, 1, -1, 1, -2, 7
1503964082714,7, 5, -2, -4, 1, 0, 4, 3
1503964082730,-14, 7, 3, 5, 0, 0, -6, -2
1503964082737,-15, -1, -1, -3, -2, 0, -4, -10
1503964082745,3, -7, -5, 2, -1, 2, 0, 2
1503964082759,0, 0, 3, 1, -2, -4, -9, -5
1503964082760,0, -1, -3, -1, -1, -1, 4, 2
1503964082767,-12, 1, 1, -1, -2, 0, 1, -8
1503964082774,18, -12, -2, 2, -3, -2, 0, 2
1503964082791,4, -11, -1, -6, -1, -1, -10, -5
1503964082797,-9, -8, -6, -5, 0, -1, 0, 4
1503964082805,-2, 7, 4, 4, 1, -3, 3, 5
1503964082819,-2, 4, -1, 2, 0, 1, 8, 22
1503964082827,14, 2, -1, -4, -2, 0, 4, 8
1503964082834,3, 5, 2, -1, -1, 0, 1, -1
1503964082850,-4, -8, -2, -2, -3, -1, -4, -6
1503964082859,-1, 1, 2, 3, 1, 1, -2, -4
1503964082872,-34, -2, 0, 1, -1, -3, -4, -11
1503964082879,-7, -10, -5, -5, -1, 0, 2, -2
1503964082887,8, 0, -5, 0, -2, -2, -1, 7
1503964082895,-5, -3, 1, -4, -1, -1, -4, -10
1503964082909,9, 7, 5, 6, 1, -3, 3, 6
1503964082910,-1, -1, -2, -5, 1, -1, 2, -6
1503964082916,-10, 0, 0, -1, -4, -1, -9, -15
1503964082926,15, -1, -4, -4, -4, -2, -2, 1
1503964082939,-5, 0, 5, 4, 3, 1, 2, -7
1503964082947,-3, -3, -2, -3, 0, -2, -11, -6
1503964082954,9, 1, -3, -3, -3, -1, 0, 3
1503964082977,8, -4, -4, -8, -2, -1, 2, -3
1503964082978,-3, 4, -3, 1, 1, -2, 3, -3
1503964082985,-2, 1, 1, -2, 0, 1, 4, -4
1503964083003,16, 1, -1, 3, -1, -3, 0, 0
1503964083007,-12, 1, 4, 2, -1, -1, 0, 1
1503964083014,2, 6, -1, -2, 0, 1, -6, 6
1503964083030,2, -5, -5, 0, -1, -2, 0, 13
1503964083036,-4, -1, -6, -2, -2, -1, -1, -12
1503964083045,-1, -2, -2, -2, 0, 0, 2, 1
1503964083060,-1, -5, 3, 1, 2, 0, -2, 14
1503964083068,3, -2, -2, -2, 0, 0, -1, -13
1503964083074,-17, -4, -1, -2, -3, -3, -1, -2
1503964083090,2, -1, 0, -4, -2, -2, -2, -4
1503964083097,-4, 1, 5, 4, 1, -1, 1, 3
1503964083115,-6, 0, 0, 1, -2, -1, 4, 4
1503964083119,-2, -3, -5, -4, -3, -1, 1, -8
1503964083135,6, 4, 8, 3, 1, 1, -1, 6
1503964083150,-3, 0, 1, 0, -1, 2, 2, 5
1503964083157,-2, 4, -1, -4, 0, -2, -5, 2
1503964083165,-4, 5, -3, 1, -2, -2, -4, 11
1503964083179,8, -3, -4, -3, -1, 0, 2, 3
1503964083187,-7, -12, -3, -6, -2, 0, 3, -5
1503964083195,-20, -5, -4, 7, 0, -3, -3, -7
1503964083210,4, 0, 0, -2, -2, -4, -1, -5
1503964083217,8, 2, -2, -5, -3, -1, -2, -1
1503964083228,-8, 12, 13, 3, 2, 1, 6, -9
1503964083239,8, 0, -1, -2, -1, -2, -2, 5
1503964083247,-7, -4, -4, -1, -2, -2, -2, 7
1503964083254,0, 2, 3, 2, -1, 0, 1, 6
1503964083271,9, 2, -2, -1, 1, 2, -8, -5
1503964083276,4, -4, -5, 3, -1, 0, 0, 1
1503964083285,-1, -3, -8, -1, 0, -2, 0, -1
1503964083299,15, 0, -1, -5, 0, 0, 10, 4
1503964083307,3, 0, 1, 0, -2, -1, -1, -1
1503964083314,12, 3, 1, -5, 1, -1, -1, 0
1503964083329,0, 1, -1, 0, -3, -2, -3, -13
1503964083337,-11, -4, -3, 2, -3, -2, 0, 1
1503964083345,2, -7, 3, 4, 1, 0, 0, 0
1503964083363,-10, -2, -4, -7, -1, 0, -1, -3
1503964083370,3, -5, -3, 0, -1, -2, 1, 3
1503964083374,-9, -3, 0, -1, -1, -1, -2, -5
1503964083390,-18, 0, -1, 2, 0, 1, -2, 7
1503964083397,-5, -1, 1, 1, -1, -1, -5, 1
1503964083405,9, 1, -2, -5, -1, -2, -5, -19
1503964083419,1, -2, -1, -1, 0, -1, -1, -1
1503964083430,-1, 0, -3, -3, -1, 1, 3, 2
1503964083435,-18, -9, -3, -1, -1, -1, -3, -14
1503964083450,-6, -1, 1, 1, -2, 1, -3, 2
1503964083456,1, 2, 3, -4, 0, 0, 5, -3
1503964083465,15, 2, -2, -8, 0, -2, 2, 6
1503964083479,-6, 1, -3, 1, 1, 0, -3, 1
1503964083494,-6, -1, 2, -3, -1, -1, 3, -5
1503964083495,11, 0, -2, -2, -1, 0, 1, 4
1503964083497,-1, -4, -5, -1, 0, -3, -8, -10
1503964083509,-12, 0, -2, 3, -1, 0, 1, 3
1503964083510,-2, -1, 1, -2, -3, -1, -5, -14
1503964083516,6, 4, 3, 2, -1, 0, 2, 6
1503964083532,-8, -2, -1, -5, 0, -3, -12, 4
1503964083539,-5, -6, 2, 0, -1, -2, -6, -19
1503964083547,1, -9, -1, 3, 1, -1, 6, 5
1503964083564,-1, -4, -6, 0, -2, 0, -3, 6
1503964083570,-4, 1, 3, -1, -1, 0, -9, 7
1503964083576,-2, -2, -1, 2, -1, -1, 4, 2
1503964083591,8, 1, 5, 9, 1, -1, 0, -3
1503964083599,-8, -3, 0, -4, -2, 1, 0, 2
1503964083607,-5, -3, -5, -3, -1, -2, 3, 4
1503964083621,-11, 3, 1, 5, -1, 0, 2, -10
1503964083631,-7, -4, -1, 4, 1, 1, 2, -11
1503964083637,5, 0, -5, -6, 0, -1, -2, 0
1503964083651,4, 0, -7, -4, -1, -1, 1, 1
1503964083659,10, 4, -1, -3, -2, -2, 3, 10
1503964083667,-8, -6, 2, 6, 0, -2, -2, -31
1503964083682,15, 3, 2, 1, -1, 1, 2, 9
1503964083689,-13, -2, -5, -7, -4, -1, -12, 4
1503964083698,3, -2, 0, 0, 0, 1, -3, -2
1503964083711,-8, -1, 1, -3, -3, -1, 6, 10
1503964083719,-8, -4, -3, -4, -3, -3, -7, -3
1503964083727,0, 7, 5, 1, 1, -1, 1, -10
1503964083742,16, 1, 6, 4, 1, -2, 0, 4
1503964083750,6, -1, -5, -1, -1, -1, -1, 5
1503964083756,-9, -2, -4, -3, -1, 0, 3, -5
1503964083772,2, 1, -2, -1, 0, 0, -1, 0
1503964083779,2, 9, 3, 10, -2, -1, 3, 0
1503964083787,-5, 3, -3, -6, -4, -3, -1, 3
1503964083802,-1, -10, -3, -8, -1, -3, -4, -5
1503964083810,4, 5, -2, 3, 1, 1, 5, 4
1503964083816,0, 2, 0, 3, 0, 0, -10, 1
1503964083832,-6, -3, -4, -1, -1, -2, -1, 9
1503964083840,-5, -4, -2, -4, -1, 1, 2, 1
1503964083847,4, -1, 4, 9, -2, -1, 2, 12
1503964083862,-3, 3, 0, -7, 0, -2, -5, -15
1503964083870,10, 14, -2, -8, 0, 0, 1, -4
1503964083877,-12, -6, -4, 3, 0, -2, -12, -3
1503964083891,17, 3, 7, 0, 2, 0, 1, 20
1503964083900,-31, -3, 0, 1, 0, -1, 2, -4
1503964083907,0, -6, -4, -3, -2, -1, -4, -7
1503964083921,20, 5, 1, -2, 0, 0, 5, 6
1503964083938,5, -1, -3, -5, -2, 0, 0, -2
1503964083952,-1, -9, -5, -1, 0, 0, 0, -4
1503964083959,-2, -2, -1, -1, 0, 0, -2, 4
1503964083968,0, -5, 8, 4, 2, 2, 3, -2
1503964083982,5, 9, -5, -5, -3, -4, -1, -8
1503964083989,5, 1, -1, -1, -1, -1, 4, 21
1503964083990,-2, 2, -2, -1, 0, -1, 0, -17
1503964083997,-7, -3, 1, 0, -1, -1, -3, 0
1503964084012,6, 2, 2, 1, -1, -1, 5, 16
1503964084019,7, -7, -1, -2, 0, -2, -4, -7
1503964084027,-30, -7, -4, -4, -2, -1, -8, -17
1503964084042,10, 8, 8, 6, 0, 3, 5, 19
1503964084050,6, 0, -3, -2, -1, 1, -2, 6
1503964084056,-9, -3, -8, -4, -3, -1, -6, 4
1503964084072,0, -14, -3, 0, 0, 0, 2, -1
1503964084079,14, -7, -6, -7, -2, -1, -4, -3
1503964084087,20, -1, -4, -1, -1, -3, -6, -15
1503964084102,-11, -6, 0, 0, 0, -1, 2, 3
1503964084109,-7, 4, 7, 2, 0, -1, -7, 3
1503964084116,-5, 3, 2, 5, 0, -1, 0, -9
1503964084134,-8, -5, -3, -1, 0, -1, -1, 2
1503964084142,13, 1, -1, -2, 1, -2, -1, -18
1503964084147,0, 8, -1, -1, -2, -1, 4, 8
1503964084161,2, 3, 0, -1, -1, -1, -5, 6
1503964084170,-16, 0, -5, -2, 0, -2, -3, -10
1503964084177,4, -4, 2, 2, -2, -2, 1, -1
1503964084191,-4, -2, 0, -1, -2, -1, -9, -11
1503964084201,-15, 0, -1, 0, 0, -1, 2, -6
1503964084207,11, 4, -1, 0, 0, 1, 4, 17
1503964084221,-9, -3, -2, -1, 0, 0, 4, -6
1503964084229,-3, 8, -1, -1, -1, -2, -6, -2
1503964084237,4, -2, 3, 2, 0, -1, -5, 2
1503964084251,19, -3, 0, -2, -1, -2, 2, 1
1503964084259,-4, 2, -4, 0, 0, 1, 2, -1
1503964084268,-9, -2, 0, -2, 0, -1, 1, -7
1503964084282,-3, -5, -4, -6, 0, -1, -2, 11
1503964084289,-3, 1, 4, 3, 1, 1, 4, 0
1503964084296,-5, -5, -2, -1, -3, 0, 0, -6
1503964084311,-11, 1, -1, -1, -1, 1, 2, 1
1503964084319,13, 7, 1, -1, -1, -1, 0, -4
1503964084327,-5, -2, -3, 0, -2, -1, 1, -10
1503964084342,0, 0, 2, -3, 0, -3, -4, 6
1503964084350,-6, -8, 2, 0, 1, 0, 0, -4
1503964084356,14, 3, 1, 2, 0, -1, 5, -11
1503964084372,7, -4, -5, -3, -3, -1, -4, 0
1503964084379,-5, -2, 4, 3, -1, 0, 0, -10
1503964084395,-12, -4, -2, -3, -1, -1, -2, 7
1503964084403,-4, 0, -3, -4, -1, -3, -3, 6
1503964084416,19, 5, 1, 3, -3, 0, 0, 3
1503964084418,-10, -2, -6, -2, -1, -1, 2, 1
1503964084439,-1, 2, 0, 2, 1, 0, -2, -7
1503964084440,-11, -10, 2, -3, 1, 1, 1, 0
1503964084447,4, -2, -5, -5, 0, -2, -1, -2
1503964084462,10, 3, 0, 4, 0, 0, 7, 9
1503964084471,-13, -1, 0, -1, 0, -1, -6, -8
1503964084484,-5, -8, -2, -5, -3, 0, 1, 4
1503964084493,3, 13, 0, 2, -1, -2, 3, 2
1503964084499,-9, 0, 2, -1, 0, -1, 0, 0
1503964084514,-16, -9, -1, -1, 0, -4, -2, -4
1503964084521,0, -5, -2, 5, -1, -2, -5, -6
1503964084530,15, 6, -4, -7, -2, 0, -2, 5
1503964084543,2, -3, 7, 5, 0, -3, 2, -4
1503964084544,11, 7, 1, 4, 3, -1, -2, 11
1503964084552,18, -6, -3, -3, -3, 0, -2, -3
1503964084559,-21, -4, -5, -6, -1, -3, -1, -16
1503964084574,-15, -5, 2, 0, -1, -1, -2, -6
1503964084581,11, 9, 4, 2, 0, 0, 2, 4
1503964084590,24, -9, 5, 5, 0, 0, 1, -2
1503964084604,3, -8, -7, -5, -3, -4, -9, -29
1503964084613,3, 2, 2, 0, -1, 0, 6, 21
1503964084619,6, 4, -10, -4, -2, 0, -1, 9
1503964084634,9, -10, 4, 1, -1, 0, 0, -3
1503964084642,-5, 4, 2, -1, 1, 0, 3, 4
1503964084650,-15, 0, 0, -2, -1, -4, -6, -5
1503964084663,2, -7, -2, 0, 1, 1, -2, 13
1503964084672,1, 1, -1, -1, 0, 0, -3, 20
1503964084680,11, 10, -3, -3, -3, -1, -1, 2
1503964084694,-15, -9, -6, 1, -1, -1, 2, -8
1503964084701,7, -15, -1, -2, 0, -2, -1, 1
1503964084709,-7, 5, -5, -1, -2, -3, -1, -6
1503964084723,-20, -2, 5, -5, -2, -2, -6, -11
1503964084731,6, 2, 4, 0, 0, 0, -5, -13
1503964084747,-7, -4, 0, -1, 1, 0, 3, -3
1503964084754,0, -2, 2, 4, -1, -1, 4, -1
1503964084761,-3, 0, 1, -1, -3, -2, -14, 1
1503964084771,-11, 1, 1, 0, -1, 2, 0, -13
1503964084783,2, 4, 5, 4, -1, -1, 8, 6
1503964084791,16, -6, -1, -4, 0, 0, 1, 16
1503964084799,1, 4, -2, -1, 0, -1, -1, -4
1503964084814,1, 1, -4, 0, -1, -1, 2, 14
1503964084821,-1, -7, -2, 3, -2, -2, -5, 4
1503964084829,-9, 2, -2, -5, -2, 0, -4, -3
1503964084843,12, 8, 4, 5, 1, 0, 4, 6
1503964084851,-22, 4, -6, -5, -1, -3, -15, -12
1503964084859,4, -6, -3, -2, -2, 0, 1, -1
1503964084874,-10, 2, 0, 0, -1, -4, 2, -1
1503964084881,0, 3, 6, 2, 0, 2, 7, 4
1503964084889,-1, -3, -3, -3, -2, 1, -1, 4
1503964084904,-1, -7, -4, 0, -1, -2, 0, -6
1503964084912,2, -2, -2, 0, -1, 1, -1, -9
1503964084919,0, -8, 1, -2, -1, -1, 1, -1
1503964084934,6, -3, 1, -6, -1, -2, 0, -1
1503964084941,4, 2, 1, 7, -1, -1, 2, 8
1503964084942,-15, 3, -2, 0, 0, 1, -2, -6
1503964084950,5, 3, -1, 0, 0, 0, 3, -3
1503964084963,1, 0, -3, -1, -1, -1, -4, -8
1503964084973,0, -4, 0, 5, 0, 0, 5, -1
1503964084979,-9, -1, 0, -6, 0, -2, -1, -8
1503964084994,4, 5, 0, 0, -1, -2, 1, -3
1503964085001,19, 4, -3, 2, -1, 1, 3, 10
1503964085002,-18, -7, -1, -4, -4, -3, -1, -6
1503964085010,4, -12, 2, 3, 0, 0, 0, 1
1503964085023,5, 7, 4, 3, 0, -3, -4, 1
1503964085031,-8, 5, 5, -2, 0, -1, 1, 5
1503964085041,-4, -5, -5, -1, 0, 0, -10, -2
1503964085061,-2, 7, 1, -1, -1, -1, -5, 3
1503964085062,15, -4, 2, -1, -1, -1, -1, -2
1503964085069,-8, 3, 1, 2, -1, 1, 0, 8
1503964085083,-1, 6, 2, 1, -1, 0, 5, 7
1503964085091,1, -1, 1, -2, -1, -1, -5, -5
1503964085099,-3, -11, -10, -2, -2, 0, 0, 12
1503964085114,-19, 9, 6, 0, -1, 0, 2, 0
1503964085126,3, 0, -1, -3, -1, 1, 5, 1
1503964085130,-4, 3, -5, -1, 0, -1, -2, 5
1503964085143,-14, 2, -4, 2, 1, 0, 4, -8
1503964085152,-21, -9, -4, -3, -2, 0, -7, -1
1503964085159,6, -3, 0, -7, -3, -2, -10, 4
1503964085174,8, -7, -2, 0, 0, -1, 0, 2
1503964085182,0, 0, -3, -2, 1, 0, 2, 0
1503964085189,19, -9, -5, -1, 0, 1, 4, 6
1503964085203,-6, -1, -1, -3, -1, -3, -1, -11
1503964085212,18, -2, -6, 1, -2, -1, 1, -9
1503964085219,3, -2, 0, 0, 0, -1, -14, 4
1503964085234,-1, -3, 0, -1, -1, 1, 1, -8
1503964085242,18, 1, 0, 3, 1, 2, 4, -19
1503964085250,-1, -4, -3, 0, -1, -5, -2, -8
1503964085263,3, -9, 1, -1, 0, -2, -8, 3
1503964085271,-4, 1, 0, -5, -1, -2, 3, -8
1503964085280,1, 3, -2, 3, 0, 0, 11, 24
1503964085294,-4, 0, -5, -2, -3, -5, -7, -17
1503964085301,3, 5, -7, -6, -2, 0, 6, 3
1503964085310,16, 2, 3, 9, 2, 1, -10, -9
1503964085323,-3, -3, -6, -3, -2, -2, -5, -15
1503964085331,-1, 4, -5, -4, -4, 0, 3, 8
1503964085339,-35, -10, 3, 0, -1, -1, 2, 16
1503964085354,7, 8, 1, -2, 1, 0, 2, -3
1503964085361,30, 6, -2, 1, -2, -1, 2, 2
1503964085370,-15, -8, 0, -3, -4, -3, -4, -2
1503964085383,0, 2, 1, 3, 1, 0, 2, -10
1503964085392,-1, 0, -1, -1, 0, 0, 8, 4
1503964085406,-4, -2, 2, 1, -3, 0, -4, 0
1503964085414,-5, -2, -2, -6, 0, 0, 0, 16
1503964085422,1, -6, -5, 1, -2, -4, -2, 1
1503964085436,20, 2, 2, -1, -1, 2, 5, 12
1503964085444,-12, 0, 6, 6, 1, -1, -4, -3
1503964085452,-1, -8, -5, -1, -1, -1, -1, 10
1503964085466,2, -4, 0, -3, -2, 0, -2, -10
1503964085474,-8, 6, -2, -1, -1, 0, -3, -13
1503964085482,-6, 0, -1, -2, 1, 1, 0, -7
1503964085497,15, -9, 4, 2, 0, 1, -2, 2
1503964085503,-53, -1, -3, -4, -5, -3, -1, -20
1503964085513,-9, -4, -4, -1, -1, -4, -14, -21
1503964085526,21, 0, -1, 4, 1, 2, 3, 10
