1503598807831,-10, -7, -14, -1, 0, 1, -2, 0
1503598807838,26, 2, 3, 0, -1, -1, 1, 8
1503598807846,3, -5, -4, -5, -1, -3, -2, 0
1503598807861,-3, 1, 1, -1, -1, 0, 0, -3
1503598807886,-15, 1, 3, 0, 0, -1, 1, -4
1503598807891,-12, 1, 4, 1, 0, -1, 0, -4
1503598807899,-9, -5, -3, -1, -1, -1, 0, -2
1503598807906,23, 8, 1, 2, -1, -1, -1, 0
1503598807920,-29, -8, -6, -2, -2, -1, -1, -7
1503598807933,-2, 2, -7, 1, -1, 1, -2, -5
1503598807936,10, 5, 1, -2, 1, 1, -1, 1
1503598807951,-22, -3, 3, 0, 1, 1, 3, 0
1503598807958,30, 0, -2, -1, -1, -2, -2, 2
1503598807966,11, 0, 2, -1, -2, -3, -1, 1
1503598807980,-8, -1, 4, 1, -1, -2, 0, -1
1503598807988,-4, -11, -5, 0, -1, -1, 0, 1
1503598807996,-8, -5, -4, -1, 0, -1, 0, -1
1503598808011,-5, -1, 0, -2, -1, 2, -2, -3
1503598808017,9, -10, -8, -4, -3, 0, 0, 1
1503598808018,3, 13, 11, 2, 0, -1, -1, 0
1503598808026,7, 8, -8, -6, -5, -7, -5, -6
1503598808041,-20, -19, -14, 0, 0, 1, -1, -5
1503598808048,-20, -9, 1, 1, 0, 1, 1, -1
1503598808056,29, 19, 1, -1, -2, -1, 2, 7
1503598808071,1, 7, 5, 2, -2, 1, 1, 0
1503598808078,-8, -8, -1, -1, 0, 0, -1, -3
1503598808086,13, 3, 3, -1, -2, -1, 0, 3
1503598808101,-2, -5, -2, -2, 0, 0, -2, -2
1503598808108,1, 2, 1, 0, -1, -1, -2, -2
1503598808116,12, 2, 3, 1, -2, 0, 1, 12
1503598808131,-3, -2, -1, -1, -1, -1, -4, -8
1503598808138,-14, -5, 0, -2, -3, 1, -4, -6
1503598808146,4, -2, -1, 0, 0, -1, 3, 5
1503598808160,-2, -4, -5, -2, -2, -4, -3, -6
1503598808169,0, 7, 5, 3, 0, 0, 0, 4
1503598808177,-5, -2, -4, 0, -1, -1, 1, -2
1503598808191,15, 2, -2, -3, -1, -3, -2, 3
1503598808197,-10, -12, -3, -1, -1, 0, 0, -3
1503598808206,-12, -17, -10, -1, 0, -1, -1, -2
1503598808221,-9, 1, 5, 2, 3, 0, -1, -4
1503598808228,-14, -10, -10, -5, -2, -1, -1, -3
1503598808245,4, 8, 7, 3, 2, 0, 0, 1
1503598808251,18, 7, 1, 0, -1, -1, 0, 4
1503598808259,9, 23, 16, 6, 3, 0, 0, 2
1503598808268,-5, -1, -1, -3, 0, 0, -1, -2
1503598808281,0, -4, -8, -4, -4, -2, -1, 1
1503598808288,13, 6, 4, 0, -1, 0, 0, -4
1503598808304,-10, -3, -4, -3, -3, -2, -1, 2
1503598808311,-1, 2, -2, -1, -1, -2, -1, -3
1503598808319,-8, -13, -8, -2, -2, -1, -3, -4
1503598808335,22, 18, 11, 4, 2, 1, 2, 4
1503598808347,-6, -7, -4, 1, -1, -1, -1, 0
1503598808348,-3, -2, 2, -1, 0, 2, 2, 0
1503598808349,-14, -21, -5, -4, -1, -3, 0, 0
1503598808364,24, 15, 15, 3, 0, -3, 0, 1
1503598808372,-6, -2, -1, -1, -1, -2, -1, -2
1503598808380,-23, -15, -10, -2, -1, 0, -1, -1
1503598808393,-20, -12, 0, -1, -1, -2, -3, -4
1503598808402,8, 2, -3, -2, -2, -1, 0, -5
1503598808408,1, 0, -2, -1, -2, 1, -1, 3
1503598808409,-10, -2, 0, 1, -1, -1, -3, -6
1503598808424,0, -3, -3, -3, -1, -3, 0, -1
1503598808431,9, -6, -10, -3, -3, -2, -3, 2
1503598808440,1, 6, 5, 3, 0, 0, -2, -2
1503598808454,-4, 1, 0, 0, 0, 0, -1, -3
1503598808462,-9, -5, -9, 0, 2, 1, 0, -2
1503598808469,7, 3, -2, 1, -1, 1, -2, 1
1503598808484,15, 0, -13, -6, -4, -1, 1, 12
1503598808491,-2, 2, -1, -4, -1, -3, -2, 0
1503598808499,-14, 0, 4, 2, 1, 1, 0, 7
1503598808514,10, -3, -3, -4, -5, -9, -2, 7
1503598808521,2, 1, 0, -2, -2, -4, -3, -7
1503598808528,-15, -7, -2, -1, 0, -1, -1, -5
1503598808544,-4, -10, 1, 0, 0, -1, -1, -5
1503598808551,1, 3, 1, -2, -2, 1, 0, 0
1503598808559,-4, -10, -3, -3, -2, 0, -2, -4
1503598808573,4, 11, 6, 4, 0, 3, 2, 1
1503598808581,-24, -29, -15, -7, -5, -4, -2, -9
1503598808588,-5, 23, 44, 14, 6, 5, 5, 2
1503598808604,6, 4, 12, 6, 3, 0, -2, -1
1503598808611,3, 4, -2, 2, 0, 1, -1, -3
1503598808619,13, 18, -3, -4, -1, 0, 0, -1
1503598808633,12, -3, -13, -6, 0, -1, -1, -1
1503598808642,11, 10, -7, -1, -1, -1, -2, -1
1503598808648,-1, 9, -7, -3, -2, -1, -3, -7
1503598808664,-5, -21, -41, -12, -4, -3, -2, 0
1503598808671,9, 10, 11, 9, 2, 2, 2, 11
1503598808679,11, -12, -8, -7, -3, -4, -2, 0
1503598808693,-7, 2, -12, -4, -3, -1, -3, -3
1503598808703,-4, -2, 8, 3, 1, 0, 1, 1
1503598808708,1, -8, -5, -5, -3, -1, 2, 4
1503598808724,-25, -8, 5, -1, -3, -1, -3, -7
1503598808731,-13, -12, 2, -2, -1, 1, -2, -2
1503598808739,-1, -14, 4, -1, -4, -3, -4, -11
1503598808753,-13, -25, 5, 0, -3, -2, 0, -3
1503598808761,5, 2, -19, -4, -1, -2, -6, -7
1503598808762,6, -2, -4, -2, -1, 0, 1, -9
1503598808770,3, -5, -17, -8, -4, -5, -11, -3
1503598808784,-7, 16, -1, 2, 2, 4, 10, 4
1503598808791,4, 2, -1, 0, 1, -3, -6, -3
1503598808799,-4, -6, -21, -4, -2, -1, -5, -4
1503598808813,-3, -9, -7, -6, -1, 0, 3, 2
1503598808821,-3, 15, 11, -2, -3, -7, -22, -20
1503598808828,1, 32, 47, 8, 3, 3, 10, 6
1503598808844,9, 25, 30, 7, 4, 1, 5, 18
1503598808851,-14, -32, -35, -11, -4, -2, -6, -9
1503598808866,3, 1, 15, 6, 4, 1, 2, 2
1503598808873,-1, 0, -11, -2, -2, -2, 2, -2
1503598808888,5, -3, -8, -3, -1, 0, 4, 5
1503598808889,-2, -1, -7, -1, -2, 1, -2, -3
1503598808906,-3, 0, 2, 0, -1, 0, 3, 2
1503598808911,4, 11, 13, 4, 1, -2, -1, 7
1503598808919,3, 2, 5, 0, -2, 1, 1, 0
1503598808933,1, -2, -1, 1, 1, 0, 1, 0
1503598808950,5, 8, 10, 7, 3, 2, 2, -4
1503598808972,1, -9, -15, -5, -4, -2, -1, 1
1503598808986,1, -1, 0, -1, -2, 0, -2, 0
1503598808993,3, 9, 16, 2, 1, 0, -2, 5
1503598809001,-3, 5, 1, 0, -1, -3, -2, 6
1503598809009,-5, -8, -6, -4, -3, -2, -1, -3
1503598809024,6, 14, -6, -1, 0, -2, 0, 4
1503598809031,0, 8, -1, 4, 1, 0, 0, 1
1503598809047,-5, -12, -2, -4, -2, -2, 0, -8
1503598809053,-1, -3, -10, -3, -2, -3, 0, 0
1503598809062,1, 0, -2, 2, 0, 0, 0, 0
1503598809068,-1, -8, -3, -3, -1, -1, -3, -3
1503598809084,0, 0, 1, 1, -1, 1, 1, -5
1503598809091,-4, -7, -5, -2, -2, -1, -2, -9
1503598809108,3, 0, 3, -1, 2, -1, -2, 7
1503598809113,5, 4, -3, -2, -2, -1, 1, 11
1503598809121,-8, -11, -4, 1, 1, 0, 1, -4
1503598809128,-6, -3, -5, -2, -1, -2, 0, -6
1503598809145,-1, -4, -1, 0, -1, 0, -1, 4
1503598809151,-2, 4, 6, 2, 0, 2, 1, -3
1503598809159,3, 1, -3, -3, 0, -1, 2, 3
1503598809181,3, -9, -6, -4, -2, -3, -6, -2
1503598809183,3, -6, -3, -2, -2, -1, -3, 0
1503598809188,5, 0, 2, 0, 0, -1, 0, 8
1503598809206,0, 7, 10, 5, 3, 1, 1, -3
1503598809212,-5, -5, -4, -2, -2, 0, 0, -5
1503598809226,0, 13, 11, 4, 2, 2, 0, -4
1503598809233,1, 6, 8, 3, 2, 0, 2, -4
1503598809242,-8, -9, -6, -4, -2, 0, -2, -4
1503598809256,-5, -8, -31, -5, -2, -4, -3, -4
1503598809264,5, 8, 7, 2, 1, 0, -3, -6
1503598809273,-8, -23, -28, -9, -2, -2, -1, -4
1503598809286,1, 18, 37, 8, 2, 1, 4, 1
1503598809293,-4, -21, -17, -6, -3, -4, -5, -3
1503598809301,13, 46, 41, 15, 5, 4, 4, 8
1503598809316,-3, -7, -5, -4, -2, 0, -3, -1
1503598809324,-6, -19, -39, -10, -4, -4, -1, -4
1503598809331,-2, 15, 20, 4, 0, 1, 1, -2
1503598809346,-3, -6, -17, -4, -3, -4, -3, -3
1503598809353,0, 4, 9, 2, -1, 2, 0, -3
1503598809361,-4, -21, -17, -5, -3, -2, -1, -6
1503598809376,-1, 3, 8, 1, -1, -1, 0, -2
1503598809384,-3, -4, 4, 0, -2, -3, -2, -4
1503598809391,3, 13, 17, 4, 1, -2, 1, 1
1503598809407,0, -3, -4, -4, 0, -3, -2, -6
1503598809414,0, 1, 0, 1, 0, -1, -2, -2
1503598809421,-1, -5, -10, -4, -4, -2, -3, 0
1503598809436,1, 8, 24, 5, 1, 3, 1, 1
1503598809444,-3, -3, 10, 3, 0, 0, -1, 0
1503598809451,-3, -12, -11, -8, -5, -3, 1, 2
1503598809466,3, 22, 14, 6, 3, 0, 5, 1
1503598809475,3, 4, 0, 6, 5, 4, 4, 8
1503598809482,-5, -17, -23, -6, 24, 5, -7, 0
1503598809496,1, 3, 1, -1, 5, 1, -3, -2
1503598809504,1, 1, 7, -3, -12, -3, -7, -1
1503598809511,5, 27, 9, 11, 2, -6, -7, -4
1503598809526,-7, -16, -11, -11, -9, -4, -4, -2
1503598809533,-8, -2, 1, -13, -10, -4, -3, -5
1503598809541,-7, -7, -18, 7, 20, 6, 0, -1
1503598809556,-2, -9, -18, -8, 2, -5, -6, 1
1503598809564,-2, -24, -7, -5, -14, -7, 2, 2
1503598809571,13, 46, 53, 15, 14, 12, 8, 5
1503598809586,-5, -9, -11, -10, -17, -5, 3, -4
1503598809593,-5, -28, -17, -9, -10, 1, -2, -9
1503598809601,3, 4, 17, 4, -8, -6, 2, 2
1503598809617,-2, 0, -13, -9, -2, 8, 6, 2
1503598809624,7, 8, -2, 4, -2, -1, -2, 1
1503598809631,1, -13, -9, -6, -8, -9, -7, -4
1503598809647,-3, -9, -2, -6, 0, 2, -1, -1
1503598809654,-2, -6, 0, 1, -5, -8, -2, 2
1503598809662,-1, 26, 3, 3, 15, 9, -1, -4
1503598809676,2, 9, -6, -4, -4, 1, -1, 0
1503598809685,-6, -2, 10, -1, -4, -3, 1, 1
1503598809691,-2, -5, -10, 0, 0, -3, -1, -1
1503598809707,-5, -34, -31, -12, -13, -13, -11, -9
1503598809708,2, 18, -1, 3, -9, -8, -3, 0
1503598809714,1, -16, 7, 8, 16, 12, 6, 4
1503598809721,1, -1, 6, 2, -7, -7, -5, -1
1503598809736,-5, 5, 12, 0, -2, -5, -7, -3
1503598809744,-4, 8, -25, -10, -12, -4, 8, 4
1503598809751,-10, -31, -15, -8, 2, -1, -1, -2
1503598809766,-7, -49, -36, -11, 3, 2, -4, -2
1503598809779,-14, -36, -29, -12, -6, -6, -7, -8
1503598809786,-24, -77, -33, -31, -28, -12, -10, -11
1503598809796,-2, 1, -6, -9, -2, 1, 1, 0
1503598809804,-8, -37, -53, -2, 2, -11, -7, -10
1503598809811,38, 91, 43, 48, -4, -13, 6, 11
1503598809826,25, 53, 36, 25, 50, 49, 25, 23
1503598809834,-13, -28, -29, -4, -26, -40, -15, -9
1503598809844,9, 49, 51, 19, 47, 23, -1, 6
1503598809856,46, 107, 123, 36, -24, -7, 12, 26
1503598809864,18, -15, 18, 29, 75, 65, 27, 21
1503598809871,0, 19, -22, -7, -43, -57, -20, -12
1503598809887,-2, 37, 34, 2, 56, 73, 45, -1
1503598809893,-1, -72, -50, -27, 33, 28, 17, 18
1503598809902,-59, -46, -34, -22, -89, -97, -65, -98
1503598809916,49, 45, 4, 10, -15, -14, 13, 93
1503598809917,-42, -30, -18, -3, -6, 5, -2, -8
1503598809924,-24, -20, -10, -17, -23, 17, -1, -76
1503598809931,-5, -21, -14, -12, -5, -4, -19, -10
1503598809946,26, 26, 16, 15, 14, -9, 24, 48
1503598809953,-18, -26, -37, -85, -52, -45, -38, -31
1503598809961,20, 18, 31, 94, 73, 34, 7, 31
1503598809978,-2, -13, -10, 16, 105, 46, 24, 4
1503598809985,7, -3, -14, -29, -48, -53, -23, 15
1503598809991,3, 4, 8, 2, -13, 19, -1, -3
1503598810006,2, 0, -12, -19, -39, -28, -5, 11
1503598810016,-1, 1, 2, 10, 1, 13, 10, -1
1503598810021,-2, -8, -10, -13, -23, -13, -8, 8
1503598810036,0, -7, -1, 8, 4, 4, 1, 1
1503598810045,2, -1, -3, -14, -19, -6, -7, 3
1503598810052,-1, 0, 3, 10, -1, 2, 2, 0
1503598810067,0, -3, -5, -13, -17, -14, -2, 3
1503598810073,2, -1, -1, 6, 0, 6, 3, 1
1503598810082,-1, -1, -1, -3, 0, 4, 2, -1
1503598810083,3, 0, -1, -7, -9, -8, -4, 4
1503598810096,0, -9, -3, 0, 0, 5, 0, 0
1503598810104,0, 0, -2, -6, -9, -2, -3, 1
1503598810111,-1, -3, 3, 3, -3, 1, 3, -1
1503598810126,-2, -6, -4, -4, -6, -4, -3, -1
1503598810134,0, 0, 3, 3, 1, 5, 2, 13
1503598810149,-3, -7, -4, -6, -4, -4, -1, 4
1503598810156,4, 1, -1, 4, 0, 0, 3, 9
1503598810173,-3, -3, 1, -3, -7, -3, -3, -9
1503598810179,-3, -2, -4, 1, -1, -1, -3, -3
1503598810187,-3, 3, 9, 0, -3, -4, 0, 3
1503598810193,7, 3, 3, 3, 3, 5, 7, 10
1503598810208,-5, -9, -12, -6, -5, -7, -8, -10
1503598810223,0, -1, 3, -1, -3, -9, -8, -9
1503598810224,-9, -2, 2, 0, 0, 3, -3, -10
1503598810225,7, 1, -5, -3, -3, -1, 1, 11
1503598810238,-3, -1, -5, 2, 3, 5, 1, -10
1503598810246,0, 4, -7, -3, -1, -4, -5, -10
1503598810254,-8, -12, -10, -6, -6, -2, -3, -10
1503598810272,-6, -5, -6, -4, 0, 4, 5, 13
1503598810278,17, -1, 8, 1, 0, -1, 3, 28
1503598810290,51, 42, 39, 15, 7, 4, 8, 25
1503598810300,-10, -6, -4, -1, -3, -1, -2, -12
1503598810306,10, -9, -9, 1, 5, 0, -1, 7
1503598810307,-7, -3, -8, 5, 2, -4, -1, 4
1503598810314,9, 9, 9, 20, 23, 19, 7, 0
1503598810328,-13, -4, -6, -5, -3, -2, -4, -12
1503598810336,-8, -5, -9, -11, -9, -9, -5, -19
1503598810346,-10, -9, -3, -3, -1, -2, -1, 6
1503598810358,7, -7, -19, -11, -4, -3, -1, 22
1503598810359,-8, 9, 6, 7, 0, -3, -4, -5
1503598810366,-1, -14, -11, 2, 4, 0, -5, -19
1503598810373,-44, -4, -18, -7, 0, 8, 11, 2
1503598810388,10, 0, -9, 0, 2, 0, 3, 9
1503598810396,14, 11, 11, 20, 11, 8, 2, 1
1503598810404,-13, -11, -8, -11, -6, -9, -8, -6
1503598810419,1, -5, 0, -11, -14, -14, -10, -6
1503598810426,-8, 0, -7, -4, 0, 5, -3, -18
1503598810433,11, 0, 1, -4, -2, -4, -7, 5
1503598810448,11, -7, -7, -3, -3, 0, -3, -8
1503598810456,-1, -7, -6, -8, -5, -5, -9, -8
1503598810464,-11, 0, 5, 1, -2, 1, 2, -8
1503598810479,0, -5, -9, -6, -2, -1, -4, -7
1503598810486,-14, -9, -8, -6, -4, -1, -1, 1
1503598810493,-6, -1, 3, -5, -5, 3, 2, 2
1503598810508,-6, 9, 2, 2, -2, -2, 0, 9
1503598810516,-2, -9, -5, -1, 7, 4, 5, 3
1503598810524,12, 11, 10, 7, 3, 1, 0, -1
1503598810538,17, 1, 1, -4, -9, -14, -8, 0
1503598810547,-22, -17, -11, -13, -4, 1, 2, -8
1503598810553,-1, 5, 7, 3, -4, -6, -6, -19
1503598810568,2, -2, -2, -3, -5, -1, 3, 2
1503598810576,0, 10, 12, 5, 5, 7, 6, 7
1503598810584,4, 3, 4, -5, -5, -7, -3, -3
1503598810598,2, 1, -6, 1, 2, 4, 8, 10
1503598810606,1, 1, 4, -3, -4, -2, -2, 4
1503598810613,-2, -5, -9, -6, -4, -3, 3, 1
1503598810628,3, 2, 0, 1, 0, 1, -2, -2
1503598810636,13, -1, -8, -10, -8, -8, 4, 35
1503598810644,0, 1, 0, -1, -6, -7, -3, -1
1503598810658,-12, -2, -6, -6, -4, -2, -8, -23
1503598810666,5, -2, 1, 0, 4, 3, 3, 9
1503598810673,-2, -7, -6, -1, 0, 2, -1, -4
1503598810689,0, 4, 3, 4, 4, 3, 0, -5
1503598810695,5, -5, -6, 0, -1, 0, -1, 7
1503598810696,0, 9, 5, 2, -2, 0, -1, -3
1503598810704,-2, -3, 3, -2, -3, -6, -3, 2
1503598810719,-2, -2, 4, 0, 1, 1, 1, 0
1503598810726,0, -1, -1, 0, 1, 0, 2, -1
1503598810733,-2, -1, 1, 2, -1, -1, -1, -4
1503598810748,-3, -2, -3, -2, 0, 1, -2, -6
1503598810756,-3, 30, 33, 7, 3, 1, -4, -9
1503598810764,6, 4, -8, 3, 3, 0, 1, 14
1503598810782,-8, -6, -2, -4, -2, -2, -3, -7
1503598810788,-1, -3, 1, 0, -1, -3, -4, -8
1503598810794,-2, -13, -14, -3, -1, -3, -5, -4
1503598810808,0, -4, -3, -2, -4, -4, -8, 0
1503598810816,5, 4, 10, 5, 3, 2, 3, 2
1503598810824,-6, -11, -5, -5, -3, -1, -1, -4
1503598810838,12, 43, 69, 20, 9, 6, 6, 10
1503598810848,-8, -11, 0, 1, 0, -3, -3, -7
1503598810849,9, 10, 4, 1, -4, 0, 1, 1
1503598810853,0, -12, -18, -6, -4, -3, 0, -1
1503598810868,4, 0, 5, -1, 2, 1, 5, 18
1503598810876,1, -15, -21, -6, -4, -2, 0, 13
1503598810884,-20, -22, -11, -6, -3, -2, -1, -10
1503598810886,18, 15, -24, -2, 0, -2, -2, -3
1503598810898,-19, -32, -25, -7, -2, -3, -2, -8
1503598810906,-9, 18, 7, 1, 2, -2, -2, -12
1503598810915,10, 2, -9, -5, 1, 4, 5, 1
1503598810928,-10, -17, -11, -5, -1, -1, -1, -4
1503598810936,-9, 20, 33, 9, 2, 0, -2, 0
1503598810944,3, 8, 11, 5, 2, 0, 2, 5
1503598810958,-3, -8, -25, -9, -6, -4, -5, -3
1503598810966,8, -1, 6, -1, -2, -2, -1, -3
1503598810973,-2, 7, -3, -4, -2, 0, -1, -4
1503598810988,-13, -9, 3, 1, -1, 2, 1, -2
1503598810995,5, -2, -5, -3, -2, -2, 0, 3
1503598811004,1, -14, -8, -4, -5, -3, -2, -2
1503598811019,-9, -12, -5, -1, -1, 1, 0, -8
1503598811026,-2, 3, 5, 3, 1, 1, -1, -3
1503598811033,2, 0, 9, 0, 0, -2, -1, -1
1503598811049,-4, -1, 2, -1, -2, -1, -2, -5
1503598811056,5, 4, 7, 6, 1, -1, -1, 1
1503598811064,-3, 1, 0, 1, -1, 0, 0, 2
1503598811078,0, -9, -17, -5, -2, -2, -5, -5
1503598811087,-4, -6, -2, -1, 1, -1, -1, -2
1503598811100,-2, -4, -5, -3, -1, -1, 0, -4
1503598811101,-3, -10, -18, -8, -3, -1, -2, 1
1503598811108,-1, -7, -8, -3, 0, 1, 0, -1
1503598811116,0, -12, -23, -3, 0, -4, -1, -3
1503598811131,0, 5, 5, 1, 0, 0, 1, 0
1503598811138,-5, -13, -22, -7, -3, 0, -1, -2
1503598811146,4, 13, 1, 2, 3, 0, -1, 0
1503598811160,2, -4, 9, 3, 0, -1, 2, 0
1503598811168,-10, -10, -6, -7, -2, -3, -5, -9
1503598811176,-4, 7, 7, -7, -10, -1, 1, 3
1503598811191,4, 4, 2, 6, 5, 3, -4, -3
1503598811192,1, -4, -1, 5, 6, 6, 5, 7
1503598811198,1, -1, 2, -1, -4, -4, -4, -1
1503598811207,-1, -4, 0, -4, -3, -2, -2, -1
1503598811221,-7, -22, -25, -11, -4, -1, -1, -3
1503598811228,0, 4, 7, -2, 0, 0, -2, -4
1503598811236,-2, -4, 11, 3, 2, 1, -4, -7
1503598811252,0, 0, 0, -1, -1, -1, 2, 4
1503598811259,1, 4, -2, 0, 2, -2, -3, -4
1503598811267,6, 3, 1, -1, -3, -1, -1, 5
1503598811280,4, 9, 8, 4, 4, -1, 1, 2
1503598811289,-6, -11, -11, -8, -6, -4, -2, -2
1503598811296,0, -1, 3, 0, -1, -2, 0, 0
1503598811311,-1, -3, -3, 0, 3, -2, 0, -4
1503598811318,-1, 4, 4, 3, 1, 1, 2, 0
1503598811326,-1, -1, -1, 1, -2, -3, -2, 0
1503598811340,0, -1, 2, -1, 0, -2, -2, -4
1503598811350,-1, 1, 1, -1, -2, -1, -2, -3
1503598811356,-4, -5, -6, -1, 0, -1, 3, 0
1503598811371,0, 17, 17, 13, 5, 4, 2, 3
1503598811378,10, 17, 15, 6, 6, 2, -1, 12
1503598811387,1, -6, 1, -4, -5, -1, 0, 0
1503598811388,-4, -4, -4, -3, -3, 0, -2, -3
1503598811400,-4, -1, -1, -3, -2, -3, -3, -7
1503598811408,3, 0, 2, 0, 1, 2, 0, 2
1503598811423,0, -6, -9, -4, -2, 0, -2, -5
1503598811430,-1, 6, 9, 3, 0, -2, -3, 0
1503598811431,-3, -12, -10, -5, -2, -3, 0, 3
1503598811445,-5, -1, 2, 2, 1, 1, 0, -3
1503598811447,-8, -5, -3, -1, -1, 2, 4, 7
1503598811460,-4, -4, 1, 0, -1, -1, 1, 1
1503598811468,7, -3, -4, -3, -3, -3, 0, 4
1503598811484,11, 5, -3, -3, -1, 2, 3, 16
1503598811491,-4, -1, 1, 0, -2, -3, -4, -7
1503598811498,2, 6, 4, 0, -1, -1, -1, -5
1503598811506,1, -2, 0, 2, 0, -1, -4, -8
1503598811520,2, -4, -8, -3, 0, 0, 0, 8
1503598811528,-9, -10, -9, -9, -5, -5, -7, -8
1503598811535,-4, -16, -9, -2, -1, -2, -1, 1
1503598811551,19, 9, 16, 9, 3, 2, 3, 8
1503598811558,-6, 4, 9, 3, -1, -2, -3, -6
1503598811566,-5, -5, -5, -5, -2, -1, -1, -4
1503598811580,9, 4, 0, 3, 5, 4, 8, 19
1503598811589,-15, -2, -3, -3, 0, 0, -1, -8
1503598811595,-4, 2, 0, -2, -5, -6, -5, -12
1503598811610,4, 2, -1, -2, -2, -3, -3, 2
1503598811618,-3, 4, 3, -5, -5, -1, -3, -11
1503598811627,-3, 1, 0, 2, 1, 2, -2, -9
1503598811640,1, 6, 4, 2, -2, -3, -3, -4
1503598811648,4, 1, -2, -2, 0, 0, -1, 10
1503598811656,-6, -3, -3, -1, 0, 1, -1, -5
1503598811670,-2, -2, -4, -1, -2, -1, -3, -9
1503598811671,-1, 0, 1, 1, 0, 0, 2, 3
1503598811687,-1, -3, -2, -1, -1, -2, -4, -5
1503598811688,-5, -8, -11, -1, -2, -1, -5, -11
1503598811700,-5, -9, -2, -2, -2, -2, -6, -7
1503598811708,-7, -8, -3, -1, -2, -1, 0, 8
1503598811716,1, 7, -12, -1, 0, 1, 1, -4
1503598811731,3, 2, 3, 1, 1, -1, -2, -5
1503598811738,-4, -10, -8, -5, -3, -1, 0, 0
1503598811746,14, 18, 21, 7, 4, 6, 7, 11
1503598811761,1, 0, 4, 1, 0, -1, -1, 0
1503598811768,-4, -4, -1, -3, -2, -2, -1, -8
1503598811776,3, -1, -1, -1, 1, 1, 0, 6
1503598811791,-4, -5, -7, -3, -2, -3, -4, -15
1503598811798,-4, -3, -1, -1, -2, -1, 0, -6
1503598811806,-1, -1, -4, -2, -1, -1, -1, 3
1503598811821,2, 3, 2, 1, 0, -1, -1, 10
1503598811828,-7, 12, 20, 7, 1, 2, -1, -15
1503598811836,4, -3, -4, -2, -1, -1, 1, 10
1503598811854,9, -4, -9, -3, -2, -3, 0, 9
1503598811860,-1, 2, 3, 0, -1, -1, 1, -6
1503598811866,-4, -4, -5, -3, -3, -2, -4, -7
1503598811881,-2, -2, -4, -2, 0, -2, -2, 1
1503598811890,0, -3, -2, 1, 1, 1, 4, 3
1503598811896,-2, 1, 2, -1, -2, -2, -4, -7
1503598811911,0, -1, -7, -3, 0, -1, 7, 9
1503598811923,-16, -3, 0, -1, -2, -1, -7, -40
1503598811926,-3, -12, -13, -5, -2, -3, -6, -3
1503598811940,-5, -5, 2, -1, 1, -1, -1, -3
1503598811948,0, -11, -2, -4, 0, 4, 7, 15
1503598811956,3, 2, 12, 5, 2, 2, 0, 5
1503598811970,2, -3, -7, -4, -3, -3, 2, 25
1503598811978,2, 0, -4, -3, -1, -3, -1, 5
1503598811988,-5, 1, 1, 0, -2, -2, -5, -11
1503598812000,0, 5, -4, 1, -1, 0, 2, -2
1503598812008,-7, 8, 23, 5, 2, 1, -4, -20
1503598812023,0, 5, 4, 2, 1, 1, 1, 2
1503598812031,1, 1, -3, -2, -3, -4, -5, -9
1503598812038,2, -6, -4, -4, -2, 0, 2, 5
1503598812054,-1, 0, -1, -1, -1, -1, -2, 5
1503598812060,-6, -2, -3, 0, -1, -1, -3, -4
1503598812068,-5, 2, -1, 2, 1, 3, -1, -15
1503598812082,-6, -1, -1, -3, -4, -4, -3, -3
1503598812091,-7, -5, -10, -4, -2, -6, -7, -12
1503598812098,7, 12, 5, 4, 1, 1, 3, 2
1503598812113,2, 16, 8, 4, 1, 3, 8, -3
1503598812122,-3, -13, -16, -5, -3, -2, -1, 8
1503598812128,6, 1, 3, 0, -3, -2, 2, 19
1503598812129,-1, -5, -7, -3, -1, -1, -7, -12
1503598812142,-7, -3, 2, 1, 0, 2, 2, -5
1503598812150,3, -2, -2, -1, 1, 0, -2, 2
1503598812158,4, -5, -4, -4, -2, -3, -4, 5
1503598812173,0, 0, 1, -1, -2, -1, 2, 1
1503598812180,9, 1, 0, 0, 2, 2, 3, 11
1503598812191,15, 1, 0, -1, 0, 2, 7, 20
1503598812203,0, 1, -2, -2, -4, -4, -1, 14
1503598812211,-2, -5, -3, 0, 3, 0, -4, -3
1503598812218,1, -1, -1, -2, -1, -1, -6, -20
1503598812235,11, -2, -1, -2, -6, -6, 1, 19
1503598812240,12, 9, 9, 6, 14, 11, 3, 5
1503598812249,-13, -11, -1, -2, -4, -3, -4, -20
1503598812263,1, -3, 3, 2, 0, 3, 5, 10
1503598812271,-2, 32, 37, 7, 4, 0, -3, -13
1503598812278,-8, -1, -2, 1, 1, 1, 0, -10
1503598812293,-6, -13, -18, -6, -4, -4, -4, -5
1503598812300,-2, 0, -1, -3, -4, -6, -2, 9
1503598812308,1, -1, -5, -2, -1, 1, 2, 21
1503598812329,8, -3, -4, -2, -4, 0, 9, 23
1503598812331,16, 3, -1, 1, -1, 0, 2, 1
1503598812338,-13, -2, 0, -1, -3, -5, -11, -31
1503598812355,-1, -5, -3, -1, 2, 5, 9, 10
1503598812364,4, 2, 0, -2, -4, -1, -2, 8
1503598812368,2, -5, -3, -2, -2, -3, -5, -5
1503598812382,6, -1, -4, -2, -1, 0, 1, 12
1503598812391,-3, -2, -4, -1, 0, -2, -2, -2
1503598812398,-5, -2, -2, -2, -1, -4, -5, -11
1503598812413,-2, -1, -4, -1, -1, 2, 0, 0
1503598812420,-2, -7, -5, -5, -3, -4, -3, 10
1503598812428,-4, -10, -9, -1, 0, -1, 0, -2
1503598812442,-7, -12, -7, -3, -3, -2, -6, -13
1503598812450,-3, -5, -8, -3, -2, 0, 0, 6
1503598812458,3, 5, 7, 2, 0, 0, 1, -7
1503598812473,-14, -8, 1, 3, 0, 0, -3, -21
1503598812480,1, -1, 0, 2, 1, 1, 0, -1
1503598812489,-6, -3, -1, -2, -2, -3, -5, -6
1503598812502,0, 6, 2, -2, -2, -2, -1, -7
1503598812510,0, -1, 3, 0, -1, -3, -2, -5
1503598812511,2, 3, -1, 1, -3, -2, -1, 5
1503598812518,-4, -3, -5, -1, 0, 0, -1, -5
1503598812533,-1, 5, 1, -2, 1, 1, 3, 0
1503598812540,7, 1, 3, 1, -2, 0, 4, 17
1503598812548,0, 10, 9, 1, -1, -1, -2, -8
1503598812563,-5, 1, -5, -3, 0, -1, -3, -2
1503598812571,-6, -5, -7, -3, -2, -3, -4, -2
1503598812578,0, 1, 3, 2, -1, 0, 1, -5
1503598812593,-1, -1, 2, -3, -1, -1, -2, -1
1503598812600,-6, -2, -1, -1, -3, -3, -5, -8
1503598812608,0, -4, -2, 1, 0, 1, 2, 6
1503598812624,0, 2, 3, 2, 0, 0, 2, 0
1503598812632,1, 1, -1, -1, 0, -1, -1, 1
1503598812638,-3, -8, -7, -4, -2, -2, -1, -8
1503598812653,2, 1, 7, 2, 1, -1, 0, 0
1503598812660,0, 2, 2, -1, -1, 0, -1, -2
1503598812668,5, 0, -3, -2, -4, -1, 0, 4
1503598812682,-5, -8, -7, -1, 0, -1, 0, -4
1503598812691,-2, -1, 0, -1, 0, -2, -2, -5
1503598812705,-4, -3, -2, -3, -3, -1, -2, -3
1503598812713,-1, 0, 0, 0, -1, 0, -2, 0
1503598812728,1, -1, -1, -2, 0, -1, -2, 1
1503598812729,-3, -5, -4, -1, -1, 1, 3, 9
1503598812742,1, 7, 11, 2, 0, 0, 0, -2
1503598812750,-1, -3, -1, -2, 0, 0, -2, -2
1503598812758,-1, -1, -3, -3, -1, 0, -1, 1
1503598812773,1, 3, -1, 0, -1, -1, -2, -3
1503598812780,1, -3, -2, 0, -2, -3, -2, -1
1503598812791,-1, 0, -3, 0, -2, -1, 1, 0
1503598812802,-1, 1, 0, -1, -1, -1, 0, -2
1503598812810,0, 0, -1, -1, -1, -3, -2, -1
1503598812818,1, -1, -2, -1, 1, 0, -1, -1
1503598812834,-1, 0, 0, -1, -1, -1, -2, -2
1503598812841,-1, -4, -4, -2, -1, -1, -2, 0
1503598812849,-1, 2, 4, 1, 0, 1, 0, -1
1503598812862,-4, -2, -1, 0, 0, 0, 0, -2
1503598812870,0, -3, -2, -3, -2, -1, 0, 0
1503598812878,-1, -2, -1, 0, 3, 0, -1, -2
1503598812893,-1, -4, -4, -3, -6, -4, 0, -2
1503598812900,-2, -2, -2, -3, -8, -3, -2, -2
1503598812908,1, 11, 5, -1, 1, 0, 1, -2
1503598812925,0, 3, 2, 3, 1, 0, 0, -1
1503598812931,-2, -4, -2, -2, -2, -1, 0, -2
1503598812938,2, 1, -5, 2, 10, 0, -2, 0
1503598812953,-2, -2, -2, -1, -1, -1, 0, 0
1503598812960,0, 1, 0, 0, -5, -3, -1, 1
1503598812976,-1, -3, -4, -1, 1, 1, -3, -1
1503598812982,0, -3, -1, -1, -2, -3, 1, 0
1503598812992,0, -8, -3, -1, 0, -1, -1, -1
1503598813005,0, -5, -6, -4, -3, -1, -2, -2
1503598813013,2, 4, 7, 3, 2, 1, 2, 2
1503598813020,-1, 5, 10, 1, 0, 1, 0, 0
1503598813036,-3, -6, -11, -1, -1, -2, -1, -3
1503598813042,0, -1, -1, 0, -1, -1, -1, -1
1503598813050,0, 1, 3, 1, -2, -1, -3, 0
1503598813065,0, 0, 3, 1, 1, 0, 3, 1
1503598813073,-2, -4, -5, -2, 0, -1, -2, -3
1503598813080,-1, -1, -3, -4, -2, 0, -2, 1
1503598813096,-2, -1, -3, -2, -3, -2, 0, 1
1503598813102,-2, 0, -2, -3, -2, -2, -1, -3
1503598813110,-3, -6, -4, -1, 0, 0, 0, -2
1503598813127,1, 10, 5, 3, 1, 0, 2, 3
1503598813133,0, 1, 2, 1, -1, 1, -2, -1
1503598813141,0, -1, -1, -3, -1, 0, 0, -1
1503598813155,-2, -3, -1, -1, -1, 1, 0, -1
1503598813163,-2, -5, -4, 2, 1, 3, 1, -2
1503598813171,0, -1, 0, 0, -1, -3, -1, -2
1503598813185,-1, -2, -4, -3, -3, -1, -1, -2
1503598813193,1, 6, 1, 1, -1, -1, -2, 1
1503598813202,-1, -2, -2, -3, -2, -3, 0, -2
1503598813216,-1, -2, -2, -1, -3, -3, -2, -1
1503598813222,0, -4, -4, -3, -1, -1, 0, -2
1503598813231,-2, -4, -3, -2, -1, -1, -1, -3
1503598813245,0, 9, 13, 4, 0, 0, -2, 0
1503598813254,-2, 2, 4, -1, 0, -3, -1, -3
1503598813265,-3, -2, -4, -3, -2, 1, -2, -7
1503598813275,0, 0, 1, 0, 2, 1, 0, -1
1503598813282,-1, -2, -3, -3, -2, -3, -3, 1
1503598813290,0, -4, -5, -1, -1, 0, 0, 2
1503598813305,-1, -2, -2, 0, -1, -1, -1, 1
1503598813313,-4, -3, -3, -4, -2, 0, -1, -4
1503598813321,-2, -3, -2, -1, -2, 0, 1, 3
1503598813335,-4, -2, -7, -1, 0, 2, 0, -6
1503598813336,4, 3, 4, 2, -1, -2, -1, -2
1503598813342,-1, -5, -6, -2, -1, -1, -1, 0
1503598813350,-4, -4, -3, -1, 1, 0, 2, 2
1503598813365,-1, -2, -1, 0, 0, -3, -1, -1
1503598813373,-3, -4, -3, -1, 1, 0, -1, 0
1503598813380,-1, 8, 8, 5, -1, -1, 0, -1
1503598813396,0, -5, -4, -2, -1, -2, -2, -4
1503598813403,7, -9, -6, -3, -1, -1, 5, 22
1503598813410,-4, 4, 5, 1, -2, -4, -5, -1
1503598813427,-6, -4, -4, -5, -2, -1, -3, -16
1503598813440,1, -1, -4, -1, 2, 0, 0, -5
1503598813441,0, 3, -1, -3, -2, 1, 1, -1
1503598813455,3, 1, 3, 1, -1, 3, 6, 17
1503598813463,-2, -3, -2, 0, -2, -2, -2, -3
1503598813471,-3, -1, -1, 0, 2, 1, -1, -2
1503598813485,-5, -21, -22, -11, -3, -2, -3, -4
1503598813494,-1, -1, -2, -3, -9, -7, -7, -7
1503598813501,1, 2, 5, 0, -1, -3, -4, -7
1503598813516,-1, -2, -3, -1, 3, 2, 3, 3
1503598813524,-4, 2, -1, -2, -1, 1, -1, -5
1503598813531,-3, 4, 3, 2, -2, -3, -1, 0
1503598813546,2, -1, -2, 1, -2, -3, 3, 10
1503598813553,-1, -1, -4, -4, -2, 1, -2, -5
1503598813570,-3, -1, 5, 2, 1, 1, -4, -8
1503598813576,1, -4, -14, -2, -1, 0, -2, 0
1503598813584,-1, 2, 3, -1, -2, -3, -2, 0
1503598813590,1, -12, -10, -6, -3, -2, -1, 3
1503598813606,5, 18, 19, 8, 3, 1, 1, 3
1503598813613,-7, -1, 2, -1, 0, 2, -1, -11
1503598813631,0, -1, -3, 0, 0, -2, -2, 3
1503598813636,3, -5, -6, -3, -2, -3, -1, -4
1503598813644,0, 0, -3, -1, 0, -1, -3, -5
1503598813650,-3, 3, 2, -2, -1, -4, -4, -5
1503598813666,-1, 0, 3, 0, 0, 2, 1, -4
1503598813673,-1, 4, 7, 3, 1, -1, 1, 3
1503598813688,-5, -6, -4, -2, -2, 0, 0, 1
1503598813697,-1, -1, 0, -2, 0, 1, 0, 0
1503598813704,1, -1, -4, -3, -1, 0, -1, -2
1503598813710,0, 3, -1, -1, 0, 2, -2, 2
1503598813728,3, 3, -2, -3, -2, 0, 1, 2
1503598813733,0, -2, 0, 0, 0, -2, -2, 0
1503598813748,-3, -2, -2, 0, 0, 1, -1, -2
1503598813755,1, 5, 3, 0, 0, 1, 2, 1
1503598813765,0, 9, 10, 5, 1, -2, -2, -1
1503598813771,-1, -7, -3, -1, -2, -1, 0, 0
1503598813786,-6, -24, -17, -6, -4, -3, -3, -3
1503598813798,5, 13, 10, 4, 1, -1, -1, -4
1503598813809,-2, -2, -5, -3, -1, 1, -1, -1
1503598813815,-3, -4, -2, -1, -2, -1, 1, 1
1503598813824,-1, -1, -5, -1, -1, -2, -2, 0
1503598813832,-3, -13, -9, -5, -3, 1, 2, -3
1503598813833,0, 0, 2, 2, -5, -2, -3, 0
1503598813846,-4, -6, 0, -3, -2, -1, -1, -2
1503598813853,8, 16, 16, 3, 1, 1, 0, 3
1503598813869,0, 1, -1, -1, 0, -1, 3, -1
1503598813875,-4, -5, -8, -4, -2, -1, -1, -2
1503598813884,0, 1, 3, 0, -4, -2, -1, -2
1503598813898,-2, -4, -1, -1, 1, -2, -1, -1
1503598813907,0, 6, 5, 2, -7, -3, -2, 0
1503598813908,2, 1, 2, 4, 9, 2, -1, 1
1503598813913,-3, -4, -4, -3, 1, 1, -2, 1
1503598813931,-1, 0, -2, -3, -2, 1, -2, 0
1503598813936,0, 1, 5, 2, 1, -1, 1, 0
1503598813944,-1, 2, 0, 1, 0, 0, -2, -2
1503598813958,-1, 1, -3, 0, -2, -1, -1, -2
1503598813968,-1, -2, 0, -2, -3, -3, -2, -3
1503598813973,-3, -13, -14, -6, -1, -1, -1, -1
1503598813988,2, 1, 3, 1, -2, 0, 1, -1
1503598813998,0, -4, 0, -2, -3, -1, -3, -4
1503598814011,4, 5, 6, 3, 1, -2, 1, 1
1503598814018,-4, -4, -5, -1, 0, -1, 0, 0
1503598814026,-1, 0, 1, -2, -1, -2, 0, -2
1503598814033,-1, 2, 2, 0, -2, 0, -2, -1
1503598814049,0, 0, -3, 0, -4, 1, -1, 1
1503598814055,-1, -1, -3, -5, -3, -2, 0, -1
1503598814066,0, -1, -2, -3, -4, -3, -2, 0
1503598814078,0, 1, 1, -7, -10, -4, -1, -1
1503598814086,1, 2, 2, 7, 4, 3, 0, 0
1503598814093,-2, -4, -5, -3, -1, -1, 0, 0
1503598814108,-1, -3, -1, -1, -1, 0, 0, -1
1503598814115,2, -5, -5, 1, 2, 2, 2, 2
1503598814123,-1, -2, 0, 0, 2, 1, 0, -3
1503598814139,-3, 0, -10, -2, 2, -3, 0, 1
1503598814146,-1, 3, 5, 1, 0, 0, 1, 1
1503598814153,-2, -6, -3, 2, 2, 0, -2, -3
1503598814169,4, 9, -1, -7, -6, 0, 2, 4
1503598814176,0, 7, 9, 5, 3, -1, -2, -2
1503598814184,-2, 10, 12, -1, -1, -2, -4, -2
1503598814199,4, 6, 12, 6, 1, 1, -1, 1
1503598814206,-8, -28, -33, -12, -5, -1, -3, -1
1503598814213,-2, 0, 0, -1, 0, -2, 0, -1
1503598814231,-1, -4, -5, 1, 0, -2, -1, -2
1503598814236,-3, -10, -6, -5, -1, 1, 1, -3
1503598814244,-6, -20, -10, -3, -1, -2, -1, -2
1503598814258,1, -1, -5, -1, 0, 1, -2, -1
1503598814266,4, 19, 22, 8, 3, 2, 1, 1
1503598814273,0, -1, 4, -1, 0, 0, -2, 0
1503598814288,4, 11, 2, 3, 0, -2, -1, 1
1503598814295,-4, -5, -4, -5, -3, -1, -3, -3
1503598814305,-1, -3, 3, -3, -1, -1, -1, -1
1503598814318,-1, -5, 5, 2, -1, -1, -2, 1
1503598814326,-2, 3, 5, 2, 0, -3, -1, -3
1503598814333,-4, -5, -16, -7, -5, -2, -1, -4
1503598814348,0, 3, 10, 1, 2, 0, 0, 2
1503598814356,-2, -10, -14, -6, -3, -1, -1, -1
1503598814369,2, -3, -15, -4, -1, -1, 0, -5
1503598814378,4, 20, 17, 8, 6, 4, 5, 3
1503598814386,-2, -9, -8, -3, -2, -3, -3, 1
1503598814393,-2, 1, 5, 0, -2, -2, -1, 0
1503598814409,2, -4, -7, -1, -1, -3, -1, 0
1503598814415,0, 2, 1, 0, 0, -2, 0, -1
1503598814423,-4, -4, 1, 0, 0, 0, 0, -2
1503598814424,-4, -12, -14, -6, -2, -2, -2, -2
1503598814438,3, 16, 13, 3, 0, 0, 0, 0
1503598814446,0, 0, -2, -2, -1, 1, 0, -2
1503598814453,-1, -3, 0, 2, 0, 1, 1, 0
1503598814468,5, 28, 36, 9, 1, 2, 0, -2
1503598814475,8, 15, 4, 0, -1, 1, 1, 0
1503598814483,-2, 4, 11, 3, 1, 0, 1, -2
1503598814499,-5, -1, 5, 0, 0, -2, -3, -2
1503598814506,-3, -10, -13, -4, -3, -1, -4, -2
1503598814513,-3, -11, -9, -3, -2, -3, -2, -1
1503598814528,3, 19, 29, 8, 4, 3, 2, 5
1503598814536,-2, -6, -15, 5, 17, 2, 0, -1
1503598814543,-4, -9, -19, -5, -1, -2, 0, -1
1503598814558,20, 71, 69, 19, 0, 3, 3, 2
1503598814567,-2, -13, -27, -6, -2, -1, -2, -2
1503598814573,-6, -8, -13, -9, -6, -3, -2, 3
1503598814589,11, 4, 0, -4, -6, -3, 0, 2
1503598814595,-15, -25, -17, -5, -2, 1, -2, -6
1503598814604,-7, -18, -16, -13, -17, -5, -2, -5
1503598814618,-8, -12, -4, -3, -4, -3, -1, -3
1503598814626,12, 7, 1, 3, 5, 1, -1, -2
1503598814633,-3, -25, -13, -6, -10, -4, 2, 0
1503598814648,-10, -12, -3, -4, -1, -1, -3, -4
1503598814655,-8, -22, -5, -1, -1, -2, -5, -5
1503598814663,28, 16, -3, 5, 4, 1, 2, 7
1503598814678,5, -5, -9, -5, -4, 0, 0, 3
1503598814686,-11, -1, -4, -3, -3, -3, -2, -3
1503598814693,1, -5, -9, -4, -2, -1, -4, -7
1503598814715,-6, -1, 0, 3, 5, 2, 1, 1
1503598814716,-1, 2, 2, -2, -1, 0, -1, 2
1503598814724,-10, -5, 2, -5, -12, -5, -3, -7
1503598814738,-3, 3, -7, -6, -11, -4, -1, -3
1503598814746,-13, -23, -22, -5, 11, 2, -2, -3
1503598814753,13, 19, 16, 7, 7, 0, -1, 3
1503598814769,-5, -19, -7, -1, -3, -1, -1, 0
1503598814776,7, -6, -3, 4, 4, 1, 2, 1
1503598814783,-4, -3, -2, -4, -5, -2, -3, -1
1503598814798,0, -3, -3, -1, 0, 1, 0, -1
1503598814806,1, 3, 0, 1, 3, 0, 0, -2
1503598814821,-1, 7, 3, 7, 6, 0, -2, 0
1503598814828,-7, -4, 10, 1, -3, -2, -1, -2
1503598814835,3, 6, 16, 3, -1, -2, 2, 2
1503598814850,1, 5, 1, 0, 2, 2, 1, 3
1503598814858,0, -5, -17, -7, -3, -1, -3, -3
1503598814869,7, 12, 6, 2, -1, -1, 0, -1
1503598814881,1, -2, -14, -5, -2, -1, -1, -4
1503598814888,-4, 2, -1, 2, 1, 1, 1, 0
1503598814895,-3, -2, 2, -1, -2, -1, 0, 0
1503598814910,-1, 0, 4, 0, 0, -2, 1, 1
1503598814918,1, -11, -6, -6, -3, -1, 0, 1
1503598814926,-5, -11, 2, -2, -2, -2, -3, -2
1503598814940,-3, 3, 5, 3, 2, 1, 2, 1
1503598814941,-5, 1, 4, -5, -5, -5, -3, -5
1503598814948,22, 33, 50, 19, 8, 4, 4, 9
1503598814955,-32, -16, -15, -4, -3, -4, -7, -13
1503598814971,9, 6, -13, -5, -1, 0, -1, -4
1503598814978,3, 4, 6, 4, 2, 1, -2, 0
1503598814986,-12, -9, -14, -4, -3, -2, -2, -4
1503598815004,0, -3, -8, -9, -8, -2, -1, -3
1503598815009,-3, -7, -11, -5, -4, -4, 0, 1
1503598815015,-6, 0, 6, -3, -1, -2, -1, 3
1503598815030,-11, 4, 8, 1, 2, 1, 4, 0
1503598815038,4, -3, -1, 0, 0, 2, 0, -3
1503598815046,-4, -6, -11, -1, -1, -5, -3, -8
1503598815061,-2, -2, -2, 3, 3, 3, 6, 9
1503598815070,9, 6, -3, 4, 2, 2, -1, 1
1503598815075,-14, -6, -3, -1, -1, 0, -3, -8
1503598815090,23, -3, -3, -7, -7, -1, 7, 30
1503598815098,-8, 13, 20, 9, 4, 0, -2, -19
1503598815107,-11, -7, -2, -4, -1, 0, -2, -7
1503598815121,4, -2, -9, -5, 1, 2, -3, -2
1503598815128,-5, -2, -5, -4, -6, -8, -10, -13
1503598815136,-1, -3, -3, -5, -8, -5, -4, -6
1503598815150,2, 14, 9, 4, 3, 0, -3, 2
1503598815158,10, -11, -16, -7, -8, -4, -2, 15
1503598815166,-11, -20, -7, -3, -6, -4, -3, -15
1503598815181,22, 23, 12, 6, 4, 2, 1, 12
1503598815188,4, -8, 1, 2, 8, 8, 1, -8
1503598815195,10, -3, 0, 0, -1, -1, 1, -1
1503598815210,-6, -5, -6, -1, -4, -5, -6, -8
1503598815218,6, 4, 1, 0, 2, 3, 9, 10
1503598815226,2, 0, 1, -4, -2, -1, -5, -2
1503598815240,3, 8, 1, 4, 4, 0, 1, 9
1503598815257,0, 4, 24, 8, 4, 3, 3, -3
1503598815271,-5, 6, 5, -1, 0, 0, -1, -12
1503598815278,-3, -15, -19, -8, -4, -3, -1, 0
1503598815279,2, -9, -13, -3, -2, -3, -3, -2
1503598815286,1, 1, -4, -4, -2, -2, 2, 1
1503598815300,-5, 5, 11, 4, 2, 2, -2, 2
1503598815301,2, -2, -7, -6, -2, -1, -2, -8
1503598815309,-17, -5, -4, -3, 1, -2, -1, -4
1503598815315,7, -1, -3, 0, -1, 1, 2, 8
1503598815330,9, 3, 3, 2, 1, 1, 9, 23
1503598815339,-14, -11, -8, -9, -7, -6, 0, -7
1503598815346,-3, 3, 2, -3, 0, 5, -4, -2
1503598815360,0, -2, 4, 0, -5, -4, 0, 4
1503598815361,-7, -9, -13, -6, -5, -5, -10, -16
1503598815371,4, 14, 16, 6, 1, 3, -3, 0
1503598815375,3, 9, 20, 6, 4, 1, 4, 8
1503598815390,0, -6, -7, 0, 2, -1, -1, 0
1503598815398,-5, -3, -6, -2, -6, -1, 1, 2
1503598815408,4, 3, 4, 4, 1, 0, 1, 2
1503598815420,2, 3, 7, 1, 1, 0, -2, 4
1503598815421,-8, -7, -5, 1, 2, 1, -2, -5
1503598815428,1, -1, -12, -6, -2, -1, -1, 2
1503598815444,-1, -5, -6, 1, 2, -1, -3, -9
1503598815450,7, 14, 7, 6, 4, 5, 3, 3
1503598815458,0, -5, -9, -8, -4, -5, -5, 2
1503598815467,-13, -26, -27, -10, -7, -4, -5, -9
1503598815481,-4, 1, -6, -2, 2, 0, -1, -2
1503598815488,2, -1, 9, -1, -1, -2, 1, 3
1503598815495,-8, -20, -32, -7, -2, -2, -1, 2
1503598815514,4, 16, 11, 7, 3, 4, 3, 2
1503598815518,-11, -12, -7, -3, -2, -3, -4, -5
1503598815527,1, 11, 4, 1, 0, -1, -2, -5
1503598815541,3, -13, -9, -2, -2, -1, -2, 8
1503598815549,-6, -15, -8, -6, -2, -4, -2, -3
1503598815555,-4, -1, -1, -4, -2, -3, -3, -7
1503598815575,2, 0, -3, 2, 0, 0, 2, 3
1503598815579,1, -3, 0, 1, 0, 1, -1, 1
1503598815588,0, 0, -2, -1, -1, -1, 0, -2
1503598815601,-11, 3, 9, 0, 1, -1, -1, 0
1503598815609,-4, 9, 10, 2, 2, 0, -2, -5
1503598815615,10, 6, 0, 3, 2, 0, -1, -1
1503598815630,-8, -12, -12, -6, -4, -4, -5, -3
1503598815645,2, -3, -10, -1, 0, 1, 1, -9
1503598815647,0, 20, 20, 7, 3, 1, 3, -1
1503598815648,0, 0, 1, -1, 0, 2, 1, 3
1503598815661,4, 6, -5, 1, -2, 0, 1, 1
1503598815669,2, 3, 9, 2, 1, 0, 0, 0
1503598815675,0, -2, -2, -2, -2, -1, 1, -1
1503598815690,-5, -8, -6, -4, -3, -3, 0, -3
1503598815698,9, 3, 10, 1, 1, 2, 1, 1
1503598815710,-2, -6, -2, -2, -2, 1, 4, 2
1503598815721,-2, 0, 2, 8, 3, -1, -3, -12
1503598815728,5, 0, -1, -1, 0, 1, -2, -1
1503598815735,-7, -6, -1, -3, -4, 1, 2, -5
1503598815751,-3, 3, 6, 6, 3, 1, 1, -1
1503598815758,-6, -2, 4, -2, 0, 1, -1, 3
1503598815773,9, -2, -2, -4, -3, -2, 2, 4
1503598815781,-8, 11, 8, 2, 1, -1, -5, -10
1503598815788,-5, 3, 3, 1, 0, -1, 2, 2
1503598815803,4, 0, -1, -3, -3, -1, 1, 12
1503598815811,-7, -1, 2, 2, 0, 0, 1, -8
1503598815818,3, -1, -1, -2, -1, -1, 2, 2
1503598815833,1, -20, -13, -8, -7, -6, -10, -9
1503598815841,-8, -8, -5, -4, 0, 3, 1, -7
1503598815849,-1, -7, -6, -2, -5, -4, -7, -9
1503598815863,4, 4, 3, -2, 0, -1, -1, 1
1503598815873,-14, 1, -3, -1, 1, 0, -1, -2
1503598815878,2, -2, -1, 0, 0, -1, -1, -8
1503598815893,2, 2, 3, -2, -4, -2, 0, 4
1503598815901,23, -1, 4, -2, -2, -2, 1, 22
1503598815908,-11, 1, -16, -4, -2, -2, -3, -14
1503598815909,8, 15, 20, 8, 4, 2, 0, 17
1503598815923,-5, 5, -5, -1, 0, 0, 1, -4
1503598815931,2, 2, 3, 7, 3, 3, 4, -1
1503598815939,-4, -7, -8, -1, -1, 0, -1, -2
1503598815953,2, 19, 8, 2, 3, -2, 1, -5
1503598815961,-6, -5, -6, -3, 0, -1, 0, -2
1503598815969,-7, -23, -20, -13, -6, -1, -6, -7
1503598815983,-4, 3, 5, 1, -2, -3, -1, -3
1503598815991,2, -8, -4, -4, -1, -3, 0, 2
1503598815998,1, 0, 2, 0, 0, 0, -2, 0
1503598816013,-5, -3, -18, -4, -2, -2, -2, -3
1503598816020,-4, 3, 4, 0, -2, -1, -2, -2
1503598816028,-2, -4, -1, -2, -2, -2, -3, -4
1503598816029,2, 1, -2, 1, 1, 2, 1, 4
1503598816043,-3, 7, 17, 4, 1, 1, -1, 2
1503598816051,-7, -7, -4, -3, -2, -1, -1, -5
1503598816058,-3, -4, -5, -2, -3, -1, 0, 0
1503598816074,0, 0, 3, 0, -1, -1, -3, -3
1503598816080,-9, -25, -9, -5, -3, -2, -2, -4
1503598816088,2, 3, 7, 2, 1, 0, 1, 3
1503598816102,-2, -9, -3, -3, -1, 0, -1, -2
1503598816110,0, -4, -5, -2, -2, -1, 0, 0
1503598816118,-2, 1, -8, -2, -4, -2, 1, -1
1503598816133,2, 7, 6, 1, -1, 0, 0, 2
1503598816141,3, 9, 4, 2, 2, 1, -2, 0
1503598816149,-4, -4, -3, -1, -2, 0, -1, -2
1503598816163,4, 8, 1, -1, -2, -2, -1, 5
1503598816171,-1, -5, -2, 2, 2, 1, -1, -2
1503598816178,3, 3, -5, -2, -3, -7, -9, -5
1503598816179,-3, -7, -12, -3, 1, 2, 5, -3
1503598816193,-4, -10, -12, -6, -3, -1, -2, -1
1503598816201,1, 5, 6, -3, -4, -4, -5, -3
1503598816209,1, 5, 6, 1, 1, -1, 4, -1
1503598816223,0, 1, -2, -1, 1, -1, -1, -1
1503598816231,-5, 0, 2, -1, -2, -2, -5, -6
1503598816238,2, 15, 16, 8, 2, 0, 1, 1
1503598816253,-1, -1, -2, -1, 0, 1, 7, 6
1503598816261,-6, -5, -7, -3, -1, 1, -1, -5
1503598816269,6, 2, 1, 2, 2, 2, -1, 3
1503598816283,9, 5, 4, 0, -1, -1, -2, 6
1503598816291,-20, -4, -19, -5, 0, 1, -2, -5
1503598816298,-5, -4, -3, 0, -1, -2, -10, -5
1503598816313,1, 1, -16, -3, -3, -2, -4, -9
1503598816321,-1, -3, -9, -5, -2, -4, -3, 2
1503598816328,-1, -12, -7, -4, -2, -4, -5, -1
1503598816344,1, 2, 4, 2, 2, 3, 5, 0
1503598816351,2, -5, 1, -2, 1, 2, 6, 7
1503598816358,-15, -6, -4, 0, 1, 0, -1, -15
1503598816373,-4, -4, -1, -1, -4, -1, 3, 10
1503598816381,5, -5, -9, -2, 0, 1, 4, 11
1503598816388,9, 4, 5, 3, 1, -2, -4, -3
1503598816402,-4, -1, 3, -1, -1, 1, 3, -3
1503598816410,6, 5, 5, -1, -2, -1, 1, -1
1503598816418,2, -1, 2, 1, 0, -1, -3, -3
1503598816433,-3, 0, 2, -1, -1, -1, -2, -2
1503598816443,2, 1, -1, -1, -2, -3, -3, 0
1503598816448,0, 0, 1, 0, -1, -3, -4, -3
1503598816463,2, -6, -2, -6, -5, -5, -4, 0
1503598816471,5, 3, 1, 0, -1, -1, -4, -6
1503598816478,-6, -4, -2, -2, -2, -1, -1, -4
1503598816493,0, 13, 16, 1, 0, 0, 0, -8
1503598816500,4, 2, 11, 6, 2, 2, 2, 8
1503598816510,-2, 2, 9, 2, 0, -1, 1, -1
1503598816525,0, 3, -3, -2, 0, 1, 0, -2
1503598816539,-1, -7, -5, -3, -2, -2, -2, -3
1503598816553,-2, -3, -3, 0, -4, -1, 0, -4
1503598816560,1, -1, -9, 0, 1, -1, -1, -3
1503598816568,-2, -5, 0, -1, -1, 1, -1, 0
1503598816583,-3, 1, 8, -2, -2, -1, -1, -2
1503598816591,7, 9, 10, 3, 3, 1, 1, 4
1503598816598,-1, 7, -3, 3, 1, 2, 3, 0
1503598816614,2, 9, 11, 5, 4, 2, -1, 1
1503598816621,-2, -7, -6, 0, 0, -1, -3, -3
1503598816629,-8, -12, -12, -5, -3, -2, 0, -3
1503598816644,0, -2, -8, -4, -4, 0, -1, 2
1503598816651,1, -5, -7, -3, -1, -1, -2, -2
1503598816658,1, 0, 2, -1, -1, 0, -2, 1
1503598816673,2, -6, -7, -4, 0, 5, 1, 1
1503598816681,-3, -7, -3, -3, 0, -3, -1, -2
1503598816696,-2, 7, 10, 2, -1, -2, -2, 0
1503598816703,1, 9, 12, 2, 0, 0, 2, 1
1503598816711,-3, -6, -5, -2, -2, -4, -3, -3
1503598816725,-1, 1, -4, -1, -1, -2, -2, 0
1503598816733,1, -2, -2, -1, 0, 1, 0, 0
1503598816743,0, -4, -4, -3, -1, 0, 0, -1
1503598816755,0, -3, -11, -3, -3, -1, 0, 0
1503598816763,-1, 1, 0, 1, 0, 2, 1, 4
1503598816771,-4, -7, -6, -4, -3, -2, -5, -4
1503598816785,8, 10, -4, -1, 0, -2, -4, -4
1503598816793,7, -3, 2, 2, 1, -3, -2, 1
1503598816800,-3, -8, -6, -4, -3, -2, -5, 0
1503598816815,-6, 6, 3, 1, -1, 0, 3, -2
1503598816823,-1, 0, -2, 2, -1, -2, -3, -7
1503598816831,-6, -8, -8, -3, -1, -2, -3, -5
1503598816845,-7, -3, -1, -1, 1, -1, -3, -1
1503598816854,8, -2, -2, -3, -5, -5, -1, 7
1503598816860,7, 17, 25, 7, 1, 0, 2, 1
1503598816875,-4, 13, 18, 8, 4, 6, 9, 11
1503598816883,-3, -7, -10, 3, 3, 2, 1, 0
1503598816891,2, -7, -1, -2, -3, -4, -8, -10
1503598816905,-2, 1, 11, 2, 1, 0, -3, -5
1503598816913,2, -1, -1, 4, 2, -1, 3, 7
1503598816922,-13, -10, -14, -7, -2, -2, 1, 3
1503598816935,-6, 4, 5, 1, 0, 0, -2, -6
1503598816946,5, -2, -6, -3, -4, -4, 3, 3
1503598816951,-4, -3, -1, -2, 0, 0, 2, -1
1503598816965,-4, -3, -2, -2, -1, 2, 1, -7
1503598816973,3, -2, -10, -3, -3, -1, -3, -4
1503598816981,1, 8, 2, 0, 0, 0, -3, 1
1503598816995,-2, -1, -1, -1, 0, -1, -1, -1
1503598817003,4, -9, -13, -2, -2, 0, -2, 3
1503598817015,5, 18, 18, 5, 3, 4, 0, -2
1503598817025,-5, -5, -7, -5, -2, -1, -3, -8
1503598817033,1, -2, -1, -1, -1, -2, -2, -4
1503598817041,1, 6, 14, 3, 1, -1, -1, -3
1503598817056,-4, -7, -8, -5, -3, -2, -1, -1
1503598817063,-4, -2, 6, -1, -3, -3, -2, -1
1503598817071,-2, -12, -23, -2, 1, 0, 0, -1
1503598817085,-2, -10, -10, -5, -1, -2, 0, -6
1503598817093,-4, -7, -2, -2, -3, -2, -3, -6
1503598817100,-3, -3, -7, -2, -3, -1, 0, 4
1503598817122,-4, -1, 6, -1, -1, -1, -1, 5
1503598817123,-2, -3, -3, -3, -1, 2, 1, -1
1503598817131,1, 6, 1, 0, -2, -1, -1, 0
1503598817147,1, -1, -5, -1, -1, -1, 0, 3
1503598817154,-2, 5, -4, -4, 0, 0, -1, -1
1503598817161,7, 7, 0, 1, 0, 0, 3, 1
1503598817175,2, -2, -3, -2, -1, 0, -2, -1
1503598817176,-4, -4, -5, -1, -2, -1, -1, 2
1503598817183,3, 27, 27, 3, 2, -1, -1, 0
1503598817191,0, -4, -2, -1, -2, -2, 0, 1
1503598817205,-1, -4, 2, 1, -1, -1, -2, -2
1503598817215,-1, 3, 5, -1, 0, -1, -1, -3
1503598817222,-1, -5, -5, 0, 0, 2, 1, 0
1503598817236,-4, -4, -6, -2, -3, -2, 0, 0
1503598817243,5, 4, 12, 2, -1, -2, 0, 6
1503598817252,2, 1, -7, 0, 3, 5, 7, 2
1503598817265,-3, -1, 11, 0, -1, -1, -3, -5
1503598817273,3, -2, 0, -2, -3, -2, -2, -2
1503598817281,-2, 0, -2, -2, -2, -2, -2, 0
1503598817295,4, 12, 32, 11, 2, 2, 0, 2
1503598817303,-6, -8, -6, -4, -2, -3, -3, -5
1503598817312,-6, -20, -17, -9, -3, -2, -4, -5
1503598817325,1, 4, 9, 2, 0, -1, -1, 2
1503598817333,2, 9, 15, 2, -1, -1, -3, 0
1503598817342,-2, -8, -8, -2, -3, -1, -2, -3
1503598817356,0, -3, -9, -6, -4, -1, 0, 3
1503598817363,-1, -3, -7, -1, -2, -2, -2, -2
1503598817371,1, -2, -21, -3, 0, -1, -1, -2
1503598817386,-4, -12, -7, -3, -3, -1, -2, -2
1503598817393,-7, -9, -16, -4, -1, -3, -1, -4
1503598817400,4, 11, 25, 7, 4, 2, 2, 3
1503598817415,7, 29, 16, 5, 2, 0, 0, 3
1503598817423,4, 8, 15, 3, 1, 0, 2, 3
1503598817431,10, 22, 9, -1, -2, -1, 0, 3
1503598817445,-5, -3, -15, -4, 0, 0, -1, -2
1503598817453,-3, -12, -33, -2, 0, 0, 1, -2
1503598817461,0, -7, -11, -4, -2, 0, 0, -2
1503598817475,-5, -15, -6, -3, -2, 0, -2, -3
1503598817483,3, 5, -5, -1, 0, 0, 0, 0
1503598817491,-2, -9, 5, 2, 1, -1, -2, 0
1503598817505,-6, -8, -3, -5, -3, -3, -3, -5
1503598817515,1, 4, 16, 2, 1, 0, -1, 2
1503598817521,2, -11, -16, -5, -2, -1, 2, 3
1503598817535,-1, -4, 3, -2, -2, -3, -3, -5
1503598817543,1, 21, 27, 6, 2, 2, 2, -4
1503598817551,-10, -5, -2, -3, -2, -2, -5, -9
1503598817565,-4, -6, -13, -3, -1, 1, 1, 3
1503598817573,-6, -9, 1, -2, -3, -2, -4, -10
1503598817582,3, 3, -7, 1, -2, -1, -1, -4
1503598817595,-1, 1, -10, -5, -1, 0, -1, -1
1503598817603,1, -11, -13, -6, -3, -2, -4, 1
1503598817618,0, -4, 6, 4, 3, 1, 1, 4
1503598817624,11, 15, 7, 3, 2, 1, 2, 6
1503598817633,5, 4, 4, 0, -1, -2, 0, 3
1503598817649,-12, -11, -4, 1, -1, -1, -3, -5
1503598817656,0, -1, 3, -1, -1, -2, -2, 1
1503598817663,-2, 1, -14, -1, 1, 1, -1, -4
1503598817678,-2, -4, -4, -2, -1, 0, -1, -2
1503598817685,-2, 0, -17, -3, -2, -3, -3, -1
1503598817693,-1, -1, 1, 2, 2, 2, 1, 1
1503598817707,-4, -17, 0, -6, -4, -2, -2, -3
1503598817716,-3, -4, -8, -4, -3, -3, -3, -5
1503598817723,0, 0, 3, 1, 0, 1, 0, 5
1503598817738,-6, -3, 0, -2, 0, -1, 0, -3
1503598817744,0, 6, 5, 2, 1, 0, -4, -2
1503598817753,1, -1, -2, 0, -1, 0, 1, 2
1503598817767,1, 3, -1, 1, 0, -1, 0, 2
1503598817775,3, 7, 14, 3, 0, -1, -1, -1
1503598817783,-1, 0, 3, -2, -1, 0, -2, -3
1503598817798,4, 15, 12, 2, 1, 1, 1, 5
1503598817805,1, -2, 2, -1, 0, 0, 1, 3
1503598817813,-1, -11, -12, -8, -5, -1, -2, -2
1503598817827,-1, 1, 5, 0, 0, -1, 0, -4
1503598817835,-2, -1, -2, -1, -2, -1, -1, 0
1503598817850,1, -6, 2, 0, 0, -2, -2, -3
1503598817858,2, 5, -3, 0, -1, -1, 0, 0
1503598817865,-3, -8, -4, -3, -3, -2, 0, -1
1503598817873,1, -2, -2, -3, 0, -1, 1, -1
1503598817887,-1, 5, 6, 3, -1, 0, 0, -1
1503598817895,-3, -7, -5, -1, -3, -1, -2, -1
1503598817903,-3, -6, -4, -5, -2, -1, -2, -1
1503598817918,1, 7, 9, 6, 4, 2, 0, 1
1503598817925,3, 7, 1, -2, -3, -3, -4, 0
1503598817933,1, 1, -3, 0, -1, 0, -3, -3
1503598817950,-4, -8, -12, -6, -2, -1, -2, -3
1503598817955,-4, -1, 5, -2, -2, -5, -1, -2
1503598817963,-3, 2, 0, -3, -1, 0, -1, 0
1503598817978,-2, 2, -3, -4, -3, -2, -1, -2
1503598817985,-1, -6, -7, 1, 1, 1, 1, 0
1503598817993,-3, -9, -4, -3, -2, -2, 1, -2
1503598818007,-1, 1, 1, 1, -4, -2, -4, -3
1503598818017,2, -5, -3, -3, -1, 0, 1, 2
1503598818023,0, 1, 5, 5, 2, 1, 2, -3
1503598818038,-4, -19, -15, -6, -2, -1, -1, -3
1503598818045,-1, -7, -7, -6, -3, -2, -2, -1
1503598818054,-3, -6, 3, 0, -2, -2, -1, -6
1503598818068,-1, 5, 12, 1, -1, -1, 0, -1
1503598818075,-2, -4, -8, 0, 1, 0, -2, 1
1503598818085,1, -3, -2, -3, 0, -2, 1, 2
1503598818098,-1, 1, 0, -7, -4, -1, -6, -2
1503598818104,-2, -6, -10, -5, -2, -2, -2, 0
1503598818113,-1, -6, -11, -6, -6, -2, 0, -1
1503598818127,-3, -6, -4, 1, 0, 1, -1, -1
1503598818135,5, 26, 27, 13, 6, 1, 1, 1
1503598818143,0, 0, -3, 0, 0, 0, 1, -2
1503598818158,-2, -8, 2, -5, -4, -3, -2, -3
1503598818159,1, -1, -2, 1, 1, 1, -1, 0
1503598818165,0, -4, -6, -1, -2, -1, -2, 2
1503598818173,2, 13, 6, 2, -1, -1, -1, -4
1503598818192,-2, -5, -6, -2, -3, -2, -4, -2
1503598818195,4, 20, 16, 7, 5, 1, 3, 6
1503598818203,-1, -1, -2, -3, -1, -1, -2, -4
1503598818218,0, 0, 1, 1, 0, 0, -2, 0
1503598818219,-3, -11, -10, -4, -4, -2, -4, 0
1503598818226,-1, 2, 7, 4, 1, 0, 1, -1
1503598818233,-5, -9, -7, -4, -1, -2, 0, -4
1503598818247,1, -2, -7, -2, -1, -1, -2, -1
1503598818257,0, 0, 10, 2, 2, 1, 1, 1
1503598818274,0, 3, 1, -1, 0, 1, 1, -2
1503598818278,-1, -10, -5, -2, -2, 0, -2, -2
1503598818285,-1, -2, 0, -1, -1, 1, 3, 2
1503598818293,2, 5, -4, -2, -1, 0, 0, 1
1503598818307,-3, -9, -2, 3, 1, 0, -1, -2
1503598818315,-6, -12, -11, -6, -2, -2, 2, 0
1503598818323,0, 5, 5, 0, 0, -1, -1, 1
1503598818338,0, -3, -7, -1, 1, -3, -5, -2
1503598818344,2, 17, 19, 2, 1, 0, 1, 0
1503598818354,0, 1, 9, 5, 3, 2, 2, -2
1503598818355,-1, -4, -5, -2, -3, -1, -1, 1
1503598818367,-5, -6, -4, -1, -1, -4, -3, -6
1503598818375,1, -1, 2, -1, -1, -1, 0, 0
1503598818383,0, 3, 3, -1, -2, 1, 0, -3
1503598818398,1, 0, -2, 1, 1, 0, 0, 1
1503598818404,0, -1, -9, -2, -1, 0, 1, 2
1503598818413,3, 2, 3, 0, -2, 0, 2, 0
1503598818428,0, -2, -7, -1, -2, -1, -2, -3
1503598818435,3, 15, 14, 3, 2, 0, -1, 1
1503598818443,1, 5, 9, 1, -1, -1, 0, 0
1503598818458,-5, -14, -12, -3, -3, -3, -4, -6
1503598818465,1, -5, -12, -3, -1, -1, -1, 2
1503598818480,-6, -4, 3, -2, -1, -1, -2, -4
1503598818487,-2, -4, -7, -1, -1, -2, -1, 0
1503598818495,4, 4, -13, 0, 0, 2, 1, 1
1503598818503,-2, -1, -4, 0, -1, -1, -1, -5
1503598818519,-3, -11, -5, -3, -3, -1, -3, 1
1503598818525,-1, -5, 1, -5, -2, -4, -2, 3
1503598818541,3, -7, -4, -2, -2, -1, -1, 0
1503598818547,-4, -4, -5, -4, 0, -2, -2, -2
1503598818555,-6, -4, 0, -4, -3, -2, -1, -3
1503598818556,-3, -5, -7, -2, -3, -2, -2, 1
1503598818570,-1, -2, -12, -5, -2, -1, -2, -5
1503598818578,5, 12, 25, 4, 0, -1, 4, 2
1503598818587,6, 11, 22, 3, 2, 2, 1, 2
1503598818601,-3, 5, -1, 1, 1, -1, -1, -1
1503598818607,1, 4, 2, 1, 1, 0, 0, 1
1503598818615,-6, -3, 2, 1, 0, -1, 0, -1
1503598818630,-4, -7, -12, -2, -2, -1, 0, 0
1503598818638,-2, 4, 8, 0, -1, -1, 1, -3
1503598818644,0, 2, 4, 0, -1, 0, 1, 2
1503598818661,2, 5, 9, 2, 0, 0, -4, -1
1503598818667,-2, -16, -6, -5, -1, -1, -2, 3
1503598818675,-3, -8, -7, -5, -1, 0, 0, -4
1503598818691,-1, 8, 19, 4, 0, 0, -1, -1
1503598818698,1, -4, -12, -2, -2, -1, -2, 3
1503598818704,-1, 0, -5, -1, -1, 0, -1, -3
1503598818724,1, 10, 6, 2, 2, 1, -1, 0
1503598818727,-2, 1, 5, 1, 0, -2, -2, -2
1503598818735,-4, -1, 6, -2, 1, -1, 0, -1
1503598818749,2, -2, -5, -2, -3, 1, 0, 0
1503598818750,1, 9, -2, 2, 2, 1, 1, 0
1503598818758,0, 6, 22, 5, 1, 0, -1, -2
1503598818765,0, -2, 0, 0, 0, -2, 1, -2
1503598818780,1, 2, -3, 4, -2, 0, 0, 1
1503598818796,-1, -6, -12, -2, -1, -2, -2, -1
1503598818810,-2, -10, -10, -4, -3, -1, -2, 0
1503598818818,-3, -6, -4, -3, -3, -3, -1, -2
1503598818825,-1, -2, -3, 0, 0, -2, 1, 1
1503598818840,-1, -4, -10, -2, -4, -1, 0, 1
1503598818848,2, 3, 10, 3, 2, 1, 0, -2
1503598818855,0, -1, -16, -5, -1, 1, -2, -4
1503598818871,0, 5, 7, 1, -1, -1, 0, -1
1503598818878,7, 18, 22, 10, 4, 2, 4, 3
1503598818894,1, 3, 0, 1, 0, -2, -2, -1
1503598818901,-1, 3, 0, -3, -1, -1, -1, -1
1503598818908,2, 4, 2, 2, -1, 0, 0, 2
1503598818915,-3, -10, -5, -2, -1, -2, -2, -2
1503598818932,1, -1, -3, -2, -2, -3, -1, 0
1503598818938,-2, -1, -3, -4, 0, -1, 0, 0
1503598818956,-1, 3, -3, -1, -1, -1, -1, -1
1503598818961,1, 4, 9, 3, 0, -1, 2, 0
1503598818962,-3, -12, -17, -6, -2, -2, -2, 0
1503598818978,-1, -3, -9, -4, -2, 0, -2, -3
1503598818997,5, 13, 15, 5, -1, 1, 1, 2
1503598818998,-8, -10, -7, -1, -3, 0, -3, -6
1503598819013,-1, -7, -12, -5, -3, -1, 1, -2
1503598819022,2, -1, -4, -1, 0, -1, 0, 0
1503598819028,0, -4, -2, -2, -1, 0, -1, -1
1503598819035,-2, -5, 2, -1, -3, -1, -1, -2
1503598819051,-3, -2, -4, -1, -3, -1, -2, -1
1503598819058,0, -4, -3, -3, -1, -1, 0, -1
1503598819073,1, -2, -11, -4, 0, -2, -1, -2
1503598819074,-1, -2, 2, 0, -1, 0, 0, 0
1503598819080,2, 3, 9, 1, 0, -3, 1, 0
1503598819095,-2, -11, -9, -4, -2, -2, 0, -1
1503598819097,0, -2, -3, -1, 0, 0, -1, -2
1503598819111,-3, -5, -6, -4, -1, -1, -3, -3
1503598819118,3, 6, -3, -1, -1, 0, -2, 2
1503598819133,1, 0, -1, -1, -1, -1, -1, 0
1503598819140,1, 2, -8, 5, 2, -2, 0, -1
1503598819148,-1, -5, -1, -3, -2, -1, -3, 0
1503598819156,-2, -7, -1, -3, -3, -1, -2, 0
1503598819171,0, 12, 13, 7, 3, 2, -2, 0
1503598819178,-3, -6, -7, -3, -2, -1, 0, -1
1503598819193,-3, -7, -5, -5, -3, -3, -1, 0
1503598819200,-1, -2, 2, 0, -2, 0, -1, 0
1503598819208,-1, -4, 2, 1, 0, 0, 2, 1
1503598819217,-1, 1, 1, 0, -1, -1, -3, -1
1503598819231,1, 5, -1, -1, 0, 0, 0, -3
1503598819238,-4, -1, 5, 2, 1, 1, 2, 1
1503598819253,-3, -3, -4, -3, -1, -2, -2, 0
1503598819262,3, 10, 16, 2, 1, 0, -1, 0
1503598819268,2, 10, 2, -1, -1, 0, 0, -1
1503598819276,-2, -6, -3, -3, -1, -1, -1, -1
1503598819292,-1, -2, 6, 4, -1, 0, 0, 1
1503598819298,0, 1, 3, 0, -1, 1, -1, -1
1503598819313,-1, -9, -10, -3, 1, 0, 0, -2
1503598819320,-3, -5, -12, -4, 0, -2, 0, -3
1503598819329,0, -4, -4, -3, -2, -1, -1, -1
1503598819335,-4, -5, 0, -2, -1, -2, -2, -5
1503598819351,1, 5, 6, 1, 0, -1, -1, -2
1503598819358,-4, -7, -4, -3, -3, 0, -4, -2
1503598819373,3, 7, 13, 4, 1, 2, 0, 2
1503598819380,2, -1, 3, 1, 1, -1, 0, 0
1503598819390,-2, -5, -5, -5, -3, 0, -1, -2
1503598819398,0, 1, -5, -1, -1, -2, 0, -1
1503598819411,-2, -15, -10, -4, -2, -3, 0, -1
1503598819418,0, -3, -5, -3, -3, -2, 1, -1
1503598819434,-3, -10, -6, -3, -3, -2, -3, -3
1503598819440,-1, -2, -8, -1, 0, 1, -1, -1
1503598819448,-6, -8, -14, -2, -2, -3, -2, -4
1503598819457,0, -1, -3, -1, -2, -2, -3, -1
1503598819471,-3, 1, 0, -2, -1, 1, 0, -2
1503598819478,0, 0, -1, -1, -2, -2, 1, 1
1503598819493,0, 4, 5, 1, -1, -1, 1, 0
1503598819500,-1, -1, -3, -2, -1, -2, -1, -2
1503598819508,1, 9, 6, 3, 3, 0, -2, 1
1503598819525,-2, -3, -3, -1, 1, 0, -1, -1
1503598819533,0, -5, -14, -3, 0, -2, 1, 0
1503598819538,0, 3, 2, 1, -2, 0, -2, -1
1503598819553,-1, -6, 5, 2, -1, 0, -1, -1
1503598819560,1, 3, 14, 4, 0, -1, 0, 1
1503598819568,0, 2, 3, -2, 1, -1, -1, -3
1503598819583,1, -2, -2, -2, 0, -1, -1, 0
1503598819592,-2, -1, -5, -2, -2, -1, -2, -1
1503598819604,-1, -8, -8, -4, -2, -1, -1, 0
1503598819613,0, -1, -2, -2, -2, 0, -1, 1
1503598819620,-1, 3, 3, -1, -1, 0, -1, 0
1503598819628,0, -5, -2, 0, -1, 0, 0, 1
1503598819643,0, -1, 9, 3, 0, 1, 1, 1
1503598819651,-6, -4, -4, -4, -1, -1, -3, -4
1503598819658,-1, -1, -9, -3, -3, -2, -2, -1
1503598819673,3, 4, 5, 1, 2, -2, 0, 0
1503598819680,0, -1, 1, -2, 0, -1, -1, 0
1503598819688,-2, 0, 1, -1, -2, -2, 0, 0
1503598819703,1, 7, 5, 1, -1, -1, -1, 0
1503598819711,1, 1, 1, 2, 0, 1, -1, -1
1503598819718,-4, -3, -7, -2, -2, 0, 1, -2
1503598819734,0, 3, 0, -2, -3, 0, -2, 0
1503598819740,-4, -3, -4, 0, -1, -1, -2, -1
1503598819748,1, -3, -4, -1, 0, 0, 0, 1
1503598819763,-1, 1, -2, -1, -2, 0, -1, -1
1503598819771,-4, -2, -7, -3, -2, -1, -2, -5
1503598819778,-3, -5, -2, -1, -1, -1, -2, -3
1503598819793,1, 5, 2, -1, 1, -1, -2, -2
1503598819801,-2, -2, 1, 0, 0, -1, 0, -1
1503598819808,-1, 5, -11, -1, -1, -1, 0, 1
1503598819823,1, -1, 1, -2, -1, -1, -1, -2
1503598819837,3, 7, 10, 6, 2, 2, 0, -1
1503598819838,-1, -1, -5, -3, -1, -1, -1, -2
1503598819853,-3, -13, -8, -4, -1, -1, 0, 0
1503598819860,1, 1, 2, 1, 0, -1, 0, 0
1503598819869,4, 13, 7, 1, -1, -1, -1, 0
1503598819883,0, 9, -6, -1, -1, -1, 0, 1
1503598819892,-1, -7, -3, -2, -1, -1, -1, 0
1503598819898,0, -1, -1, -3, -1, -2, 0, -2
1503598819913,0, 3, 12, 3, 1, 0, 0, -1
1503598819920,0, 3, 8, 2, 0, -1, 0, 0
1503598819928,-6, -6, -4, -3, -3, -2, -2, -4
1503598819943,0, -8, -3, -1, 0, 0, -1, 0
1503598819951,-1, -5, -4, -3, -2, -2, -2, 0
1503598819960,3, 5, 5, 3, 0, -1, 1, 2
1503598819973,-2, -12, -9, -5, -3, -3, -1, 0
1503598819980,-3, -6, -5, -3, 0, 1, 0, 0
1503598819988,-1, 5, 10, 3, -1, 1, -1, -3
1503598820003,0, -4, -4, -2, -2, -2, -2, 0
1503598820011,-1, -3, -7, 0, 1, 0, 0, 1
1503598820018,-1, -2, -2, 1, -1, -1, -1, 0
1503598820033,1, -2, 3, -2, 0, -1, 0, -2
1503598820040,1, 1, 1, -1, -1, -2, -1, -3
1503598820048,-6, -10, -5, -5, -4, -2, -1, -4
1503598820063,-2, 0, -6, -4, -1, 0, -2, -1
1503598820071,1, -2, 0, -2, 1, 1, -1, 0
1503598820078,0, 0, -5, 1, -1, 0, -1, 1
1503598820094,-1, 2, -2, -1, -1, 0, -1, -3
1503598820100,-1, -1, 1, -2, 0, 0, -1, -1
1503598820108,-3, -1, -1, 0, -2, -1, 1, -1
1503598820123,-1, -1, 0, 1, -3, -2, 1, -3
1503598820132,-1, 7, -8, 0, -1, -2, -1, -1
1503598820138,-2, -2, -2, -2, -4, -2, 0, -1
1503598820153,0, -1, -2, -1, 0, -2, -2, -1
1503598820161,1, 2, -2, 1, -2, 0, 0, 0
1503598820169,1, 2, 1, 1, -1, -1, -1, 0
1503598820183,-2, -6, -3, -3, 0, 0, -1, -1
1503598820191,-1, -4, -7, -4, -3, -1, 0, -1
1503598820198,0, 1, 7, 2, 2, 1, 1, 0
1503598820213,3, 14, 4, 2, 0, 0, 1, 1
1503598820220,-1, -3, 0, -1, -2, 0, -1, -2
1503598820229,1, -5, -11, -3, 1, 1, 2, -1
1503598820250,0, 3, -2, -2, 1, -3, -2, -1
1503598820252,0, -5, -3, -1, -2, 0, -3, 0
1503598820258,0, -2, 5, 2, 1, 2, -3, -1
1503598820274,1, 3, 11, 4, 3, -1, 0, 3
1503598820280,-2, 0, 4, 1, 1, -1, 1, -1
1503598820288,0, 2, -1, 1, -1, 0, 0, 0
1503598820304,1, 1, -1, 1, 1, 0, -1, -1
1503598820311,-1, 2, 4, 1, -2, -2, -2, 1
1503598820318,0, 3, 4, 0, -2, 0, 1, 1
1503598820334,-4, -5, 0, -1, -2, -1, -3, -1
1503598820340,-2, -6, -7, -1, -1, 0, 0, -3
1503598820348,3, 0, 9, 1, -1, 0, 2, 0
1503598820364,-3, -7, -11, -5, -2, -2, -2, -4
1503598820378,-3, -2, 1, 1, -2, -2, -1, -2
1503598820379,0, -2, 0, -1, -3, -1, -2, 0
1503598820396,-1, -4, -6, -4, -2, 0, -2, -1
1503598820400,1, 5, 8, 1, 1, 1, -1, 2
1503598820415,-3, -4, -4, -1, 1, 1, 0, -4
1503598820423,0, -1, 0, -1, 1, 0, 0, -2
1503598820431,0, 3, -1, -3, -2, -2, 0, 0
1503598820445,0, 10, 11, 1, -1, -3, 0, 1
1503598820459,-2, -1, -4, -4, -1, -2, -2, 1
1503598820462,-2, -6, -11, -3, -3, -2, -1, 0
1503598820475,-2, -3, -4, -1, -2, -2, -1, -2
1503598820483,-3, -3, -6, -3, -1, 0, -2, -2
1503598820491,1, 15, 16, 2, 1, -1, 0, 1
1503598820505,0, 0, 8, 5, 3, 0, 1, 0
1503598820513,-3, -8, -3, -1, -3, -3, -1, 0
1503598820520,-3, -5, -3, -2, -1, -1, -3, 0
1503598820536,4, 19, 27, 11, 5, 3, 2, 1
1503598820543,1, 5, 0, 0, 0, 0, 1, -2
1503598820551,-3, -10, -12, -5, -3, -2, -1, -3
1503598820566,2, 18, 7, 2, -1, -2, -2, 1
1503598820573,-1, -8, -7, -3, -3, -1, 0, -1
1503598820580,-3, -11, -9, -5, -3, -1, -2, -3
1503598820597,1, 1, 6, 1, 0, 1, 0, 0
1503598820604,-3, -2, 1, -1, 0, 0, 0, -2
1503598820611,-7, -11, -16, -4, 2, -2, -4, -6
1503598820625,1, -5, 1, -1, -1, 0, 0, 3
1503598820635,-1, -11, -8, -4, -2, 0, -1, -2
1503598820640,-3, -7, -8, -3, -1, -2, -1, -2
1503598820655,-3, -3, -4, -1, -2, -1, 0, -1
1503598820664,0, -6, -3, 0, -1, -1, -2, -3
1503598820673,2, 2, -2, -2, 1, 1, 0, -1
1503598820685,-3, -6, -13, -4, -1, -1, -2, -3
1503598820693,0, 5, 10, 5, 1, 1, 1, 1
1503598820701,-5, -17, -7, -3, -2, -2, -2, -3
1503598820715,4, 8, -5, 0, 1, 0, 0, 1
1503598820723,1, 5, 5, 1, 0, -2, 0, 3
1503598820731,-2, 6, 4, 0, -3, -3, -1, 1
1503598820745,0, 3, -1, 0, 0, 1, -2, 0
1503598820753,-1, -3, -3, -1, -1, -1, 0, 1
1503598820760,-1, -1, 0, -2, -1, 0, -2, -1
1503598820775,0, -1, 3, 1, 0, -2, -2, 0
1503598820783,-1, 0, 0, -1, 1, 0, 0, -1
1503598820791,-2, -2, -13, -4, -3, -2, -2, -3
1503598820806,-3, -3, -4, 0, -2, -1, -1, -1
1503598820813,-3, -10, 0, 1, -1, -1, -1, -1
1503598820821,-4, -5, 2, 1, -1, -2, -2, -4
1503598820836,-4, -10, -10, -5, -3, -1, -2, -5
1503598820843,2, 5, 9, 2, 1, 0, 1, 1
1503598820851,-2, 0, 2, -1, -2, 1, -2, 0
1503598820866,1, 3, 0, 0, -2, -1, 0, -1
1503598820874,-2, -3, -3, 0, 0, -2, -2, -2
1503598820881,1, 2, -2, 0, 1, -1, 3, 0
1503598820898,2, -4, -1, -1, -1, -1, 0, 0
1503598820903,0, 1, 3, 0, 0, 2, -2, 0
1503598820911,-4, -12, -2, -2, -1, -2, -1, -2
1503598820925,2, 4, 0, 0, 3, 0, -1, 2
1503598820933,-3, -12, -14, -5, -2, 0, 0, -1
1503598820941,-1, -1, -3, -1, -2, 0, -1, -1
1503598820955,1, 0, 3, 0, -3, -2, -1, 0
1503598820965,0, -4, -11, -6, -2, -2, 0, -1
1503598820966,1, 0, -3, -2, -2, -2, -1, -2
1503598820973,2, 7, 1, -2, 0, -1, 1, -1
1503598820985,0, 3, 4, -1, -1, 0, -3, -1
1503598820993,2, 6, 3, 3, 1, 0, -1, 0
1503598821002,-4, -4, -3, -6, -7, -5, 0, -2
1503598821015,2, 6, 6, 6, 7, 11, 4, 3
1503598821023,-2, -8, -7, 0, -1, -1, -1, -4
1503598821032,-1, 1, -3, -2, -5, -5, -3, -4
1503598821046,3, 2, 3, -2, 1, 0, -2, 1
1503598821055,0, -1, 1, -2, -1, -2, 0, 1
1503598821062,1, -1, -3, 1, 4, 8, 1, -1
1503598821076,0, 1, 0, -2, -1, -1, -3, -1
1503598821083,-2, 2, 2, 1, 0, -4, 0, 0
1503598821091,3, 1, -1, -2, 0, -2, 0, 1
1503598821112,-5, -3, -1, -1, -3, 0, 0, 0
1503598821127,0, 3, -2, -1, 0, 0, 1, 2
1503598821135,-1, 0, 1, 0, 0, -1, -1, 0
1503598821144,3, 9, 1, 0, -3, -1, 0, 3
1503598821151,4, 5, -3, -1, -2, -1, 0, -1
1503598821173,-5, -5, -2, -2, -1, -3, 0, -2
1503598821177,1, -3, -4, 1, 1, 0, 0, 1
1503598821184,2, -2, -1, -1, -1, -2, -2, -1
1503598821195,-4, -3, 0, -1, -1, -1, -3, -1
1503598821203,2, -1, 3, 2, 0, 2, -2, 0
1503598821212,-2, -3, -1, -2, -1, -3, -2, -2
1503598821225,-1, -4, -1, 2, 0, -2, -1, -1
1503598821238,-2, -1, 2, 0, 1, -1, 1, 1
1503598821242,2, 4, -2, 0, 0, -2, -1, 0
1503598821259,2, 0, 0, -2, -2, 0, 0, -1
1503598821263,-3, -5, -3, -3, -3, -2, -2, -5
1503598821274,1, 1, 2, 0, -1, 0, -2, -4
1503598821285,-3, 0, 1, 0, -1, -2, -1, -3
1503598821293,-8, -19, -14, -5, -1, -2, -2, -2
1503598821302,5, -7, 0, 1, 0, 1, -1, 4
1503598821315,5, 2, 1, -1, -2, -1, 1, 7
1503598821323,0, 21, -13, -5, -1, -1, 0, -6
1503598821333,-8, -6, -6, -1, 1, 2, 3, -4
1503598821346,-8, -13, -1, -1, 0, -1, 3, 5
1503598821357,-6, 8, 9, 4, -1, 1, -2, -11
1503598821370,3, 3, 7, 0, 0, -1, -1, -1
1503598821375,4, 1, 3, -1, -1, -2, -1, 2
1503598821383,2, -9, -9, -2, 0, -2, -2, -5
1503598821401,6, 0, -2, -1, 0, 0, 1, 6
1503598821407,-1, -1, 1, 1, 2, 2, -2, 0
1503598821414,-2, 1, 1, -2, -2, -3, -3, -2
1503598821427,-5, -10, -3, -1, -1, -2, -1, -4
1503598821436,2, 2, -2, 0, -2, -2, 0, 2
1503598821443,-3, -6, -8, -5, -2, -1, -3, -6
1503598821459,0, 3, -4, 0, -1, -1, 1, -3
1503598821468,-1, -5, 1, -2, -2, -3, -3, -4
1503598821476,3, 18, 30, 7, 3, 2, 0, 2
1503598821487,2, 5, 7, 1, -1, 0, -1, 0
1503598821495,-7, -8, -1, -2, -1, -3, -1, -6
1503598821496,12, -6, -13, -4, -2, -1, -1, 12
1503598821503,-2, 4, 8, 3, -1, 0, -1, -1
1503598821518,-1, 8, 14, 6, 1, 0, 1, 8
1503598821526,1, -7, -11, -5, -1, -2, 2, 4
1503598821535,-3, 0, -4, 2, -1, 2, 0, -2
1503598821536,1, 5, 6, -2, 0, -1, -2, -6
1503598821547,0, -7, -3, 3, 4, 2, 0, 2
1503598821548,-1, 8, 10, -1, -2, 0, -1, -4
1503598821555,-1, -6, -6, -3, -2, 1, 0, -4
1503598821563,1, -3, -14, -3, -4, -3, -3, 2
1503598821578,-5, -7, -6, -2, 0, -2, 0, -4
1503598821585,-4, -2, 1, 2, -1, 0, -2, -2
1503598821593,-4, -6, -5, 0, 0, -2, -2, -6
1503598821607,-7, -12, -6, -4, 0, -1, 1, -2
1503598821615,0, 4, 6, 1, 0, 0, 0, 9
1503598821623,0, -7, -4, -3, -3, 1, -1, -1
1503598821639,4, 26, 19, 6, 2, 0, 0, 0
1503598821646,0, -3, -2, -3, -2, -2, 0, 4
1503598821661,-6, -13, -11, -2, -3, -1, -1, -7
1503598821669,1, 6, 4, 2, 2, 0, 0, -2
1503598821676,-3, -5, -8, -4, -2, -1, -2, -3
1503598821690,0, 0, 1, -2, 0, 0, -1, -1
1503598821698,-4, -7, -9, -4, -2, -1, -3, -3
1503598821706,1, 4, 2, 1, 1, -1, -1, -3
1503598821713,-2, -7, -6, -3, -1, 1, 0, -4
1503598821728,1, 0, -5, 1, 0, -1, -1, -2
1503598821736,-3, -10, -6, 0, -1, -1, -1, -3
1503598821745,-5, -2, 3, 1, 1, 1, -1, -4
1503598821758,4, -5, -12, -4, -3, -2, -2, 2
1503598821765,-1, -7, -4, -2, 0, 2, 1, 0
1503598821775,-3, -9, -3, -2, 0, -1, 0, -3
1503598821787,-5, 5, 2, 0, 0, -2, 0, 3
1503598821795,-2, 2, 1, -1, 0, 0, -1, 0
1503598821803,2, 1, 0, 1, 0, -1, 0, 1
1503598821818,-2, -2, -1, 1, 2, -1, 0, -2
1503598821826,-1, 0, 1, -1, -4, 0, -2, 0
1503598821835,0, 0, 4, 3, 0, 0, -2, 0
1503598821847,5, 9, 3, 3, 1, 1, -1, 1
1503598821855,1, 10, 3, -2, 1, -1, -1, -1
1503598821863,-3, -5, -2, -1, -2, -1, -1, -1
1503598821878,-5, -8, -6, -2, -2, -1, 1, -2
1503598821885,3, 3, 0, -3, -2, -2, -3, -2
1503598821893,1, 16, 32, 7, 1, 1, 3, -1
1503598821907,-2, -5, 1, -1, 0, -2, -1, -2
1503598821915,6, 25, -3, -2, -4, -1, -1, -3
1503598821924,-4, -5, 1, -1, -2, -1, -1, -1
1503598821938,-7, -17, -9, -3, 1, -2, 0, -3
1503598821946,1, -1, -7, -3, 0, 2, 0, 4
1503598821953,-3, -2, -1, 1, 0, -1, -1, -1
1503598821967,3, -3, -1, -1, -1, 1, 2, -3
1503598821976,-4, -2, -2, -3, -2, -1, -1, 3
1503598821983,0, 3, 3, 0, -2, 1, -2, 3
1503598821998,0, -10, -10, -4, -3, -2, -4, -4
1503598822006,-1, 11, 12, 3, 2, 1, 1, -1
1503598822015,-1, 2, 13, 4, 2, -1, -1, -1
1503598822027,1, 7, -2, 0, -2, -3, -2, -5
1503598822042,-2, -17, -14, -7, -2, 0, 0, -2
1503598822043,-5, -14, -7, -3, 0, -1, -2, -3
1503598822059,3, 8, 0, -1, -1, 1, 1, 1
1503598822065,-11, -8, -8, -2, -2, -2, -6, -20
1503598822074,-7, -6, -5, 0, 0, -1, -1, -4
1503598822087,18, 5, 1, 2, -1, 0, 3, 22
1503598822095,2, 2, 0, 0, -2, -1, -3, -8
1503598822105,-6, -2, -1, 1, -1, -2, 0, -2
1503598822118,1, -2, -5, -1, -2, -3, -1, 3
1503598822125,-1, 2, 3, 0, -2, 0, 0, 1
1503598822133,-1, -3, 3, 0, 0, 1, -2, -1
1503598822147,0, 1, -2, -2, 1, -1, 0, 0
1503598822155,-2, -4, -5, -2, -1, 0, -4, 2
1503598822163,1, -4, -3, -1, -1, -1, 4, 11
1503598822178,-4, 0, -2, -2, -2, -3, -4, -6
1503598822185,8, 1, 0, -1, 0, 1, 5, 11
1503598822193,2, -4, -8, -5, -2, -3, 0, 4
1503598822207,-6, 1, -1, -1, 0, 0, 1, -5
1503598822215,2, 9, 1, -1, 0, 0, 0, 0
1503598822223,-4, -5, -10, -1, -1, 1, 2, -6
1503598822239,-3, -2, -6, -3, -3, -2, 2, -3
1503598822245,0, -7, -2, 0, 0, -2, -3, 4
1503598822246,2, 1, 0, 0, -1, -1, -6, 1
1503598822253,-3, -3, -1, -2, -2, -3, -3, -1
1503598822268,-3, -2, -3, -3, 0, -2, -5, -5
1503598822283,-3, -9, -6, -6, -4, -2, -2, -1
1503598822290,1, 7, 3, -1, -2, -1, -2, 0
1503598822298,22, 10, 9, 1, -1, 1, 7, 20
1503598822307,-7, -6, 3, 0, 1, -3, -6, -10
1503598822321,-9, -10, -3, 1, 2, -1, -5, -13
1503598822328,-2, -3, 5, 4, 2, 0, 6, 12
1503598822336,1, 3, 3, 3, 3, 0, 1, 0
1503598822350,5, -9, -5, -4, -3, -1, 2, 15
1503598822358,-2, 1, -1, -1, 3, 1, 2, 4
1503598822365,-2, 5, 5, 2, -2, -1, -6, -5
1503598822381,2, 4, 0, -1, -2, -4, -3, -1
1503598822388,-6, -1, -11, -1, -1, -1, -1, -8
1503598822397,-6, -7, -1, 0, 2, 4, 3, -4
1503598822410,-10, -10, -8, -7, -4, -5, -8, -19
1503598822418,-7, -4, -1, -1, 0, -1, -2, -4
1503598822425,15, 5, -9, 0, 1, 1, 3, 7
1503598822442,-5, 0, 1, -2, -5, -1, 1, -6
1503598822448,-5, -5, -5, -5, -3, -5, -4, -17
1503598822456,4, 2, 2, 1, -1, -1, -2, 3
1503598822469,-19, -3, -2, -2, -1, -1, -1, -18
1503598822470,9, 3, 4, 1, 2, 2, 1, 8
1503598822478,-5, -2, -1, -1, -2, 0, -2, -2
1503598822485,2, -3, 4, -1, -1, 0, -5, 12
1503598822500,1, -1, 0, -1, -1, 2, 0, 6
1503598822508,-1, 5, 6, 2, 1, 2, 6, 2
1503598822516,1, 6, 2, 1, -1, -4, -4, -4
1503598822529,4, 2, 5, 2, 1, 2, -1, -3
1503598822530,-5, -2, 3, -1, 0, -1, -1, 2
1503598822539,-3, -3, -2, -1, 0, -1, -3, 1
1503598822540,1, -2, -5, -2, -2, -1, -1, -10
1503598822547,-17, -1, -1, 0, 0, 0, -3, -30
1503598822561,-2, -1, 3, 0, 1, 0, -2, -4
1503598822568,5, 7, 14, 3, 1, -1, 2, 12
1503598822577,-4, -5, -4, -4, -4, -2, -4, -1
1503598822590,-1, 1, -3, -1, 0, -5, -4, -2
1503598822598,9, 15, 11, 2, 0, 2, -2, -1
1503598822607,0, -6, -9, -5, -5, -5, -12, -13
1503598822621,-6, -3, -5, -4, -1, -4, -3, -10
1503598822628,-1, 1, 0, 0, 0, 3, 10, 13
1503598822644,1, -5, -4, 2, -1, 1, 4, 7
1503598822650,-6, -3, -2, -3, -5, -6, -3, 5
1503598822658,0, -2, -1, 2, 3, 4, 2, -14
1503598822665,0, -4, -4, -4, -2, -3, -6, -6
1503598822682,-4, -4, -3, -1, -2, -2, -5, -23
1503598822688,2, -2, -1, -1, 0, 3, 6, 0
1503598822697,2, -3, -3, -1, -3, -3, 0, 10
1503598822710,-4, -1, 1, 0, -1, 0, -2, -6
1503598822711,3, 1, -1, -1, -1, -2, -3, 5
1503598822718,-2, -2, -3, -1, -2, -4, -10, 2
1503598822725,-5, 3, 8, 2, 1, -2, -14, -33
1503598822742,14, -3, -5, -3, 0, 1, 2, 19
1503598822748,-2, -2, -2, 0, 1, 1, 4, 2
1503598822764,-3, -2, -7, 3, 2, -2, -3, 0
1503598822769,3, -1, 0, 2, 0, 0, 2, 0
1503598822778,-3, 2, 3, -2, 0, 0, 1, 13
1503598822785,-3, 1, -1, 0, 1, 2, 0, -1
1503598822800,-9, -15, -7, -1, -2, 0, 4, -6
1503598822808,-4, 3, 6, -1, -9, 2, 2, -4
1503598822817,-3, -1, 2, 0, 0, -1, -1, 3
1503598822830,-1, -5, -9, -2, -3, -1, 0, -5
1503598822838,-2, 5, 2, -1, 0, -1, 0, -3
1503598822845,0, -1, -2, 0, -1, 1, 0, 5
1503598822860,1, 2, 2, -2, -3, -3, -3, -5
1503598822868,10, 4, 2, 2, 2, 1, 3, 24
1503598822876,-1, 1, -3, -1, -1, 0, 3, 9
1503598822890,-4, -7, -5, -1, 2, -2, -4, 1
1503598822898,-5, 2, 6, 1, -1, 1, 3, 0
1503598822905,-7, 6, 3, 2, -1, 0, -1, -18
1503598822920,-9, -4, -4, -3, -1, -3, 2, -1
1503598822935,0, 0, -14, -5, -1, -1, -1, -7
1503598822936,7, 12, 14, 6, 1, 1, -1, 6
1503598822951,-1, -9, -10, -4, 0, 0, -1, 6
1503598822959,6, 2, 2, -1, -3, -3, -1, 20
1503598822965,3, 1, -2, -1, -2, -4, -8, -18
1503598822966,0, -3, 4, 2, 4, 1, 1, 6
1503598822980,-1, -3, -4, -1, -2, 1, -3, -9
1503598822988,-3, -1, 2, 0, -2, 3, 3, 2
1503598822996,2, -4, -8, -2, -3, 0, 2, 11
1503598823010,6, 0, 2, 1, 1, -1, 9, 23
1503598823018,1, -2, -2, -4, -2, -1, -5, -17
1503598823025,8, 2, 1, -1, -2, -4, -5, -1
1503598823043,-1, 0, 1, 0, 0, -2, -5, -3
1503598823048,-3, -2, -1, -4, -2, 2, 4, -6
1503598823058,2, -2, -3, 0, 1, 0, 0, -9
1503598823070,5, -1, 1, 2, 0, -1, 2, 6
1503598823078,-5, 0, -3, -2, -1, -3, -11, -23
1503598823086,3, 4, 3, 2, 0, -2, -3, -5
1503598823100,1, -4, -3, -1, 0, 0, 8, 7
1503598823116,-7, -4, 0, 0, 0, 1, -2, -3
1503598823130,-5, -3, -1, -1, -2, -1, 0, 0
1503598823139,-10, -13, -9, -4, -2, 0, -6, -16
1503598823145,-1, -4, 3, 0, -1, -1, -3, -1
1503598823161,1, -2, 0, -3, -5, -1, 6, 10
1503598823168,1, 1, -3, -2, -1, 2, 13, 5
1503598823178,-8, -1, -2, -2, 0, -2, 2, -9
1503598823190,-1, -2, 1, 0, -1, -2, -2, 5
1503598823198,5, 4, 1, 0, 0, 0, -1, 1
1503598823212,-13, -5, -1, -3, -2, -7, -10, -30
1503598823220,2, 2, 2, 1, 0, 0, -1, 12
1503598823227,-4, -4, -2, 0, -2, -1, -4, -12
1503598823228,-6, -1, -2, -1, -1, -1, -3, -2
1503598823243,2, 2, 0, 0, -2, -2, -3, -2
1503598823249,-2, -3, 0, 2, -1, -1, 1, -5
1503598823250,3, -1, 1, -2, -1, -2, -4, 0
1503598823260,2, 0, 1, -1, 1, -1, -5, -2
1503598823272,-2, -2, 0, -1, -1, 1, -2, -2
1503598823281,-6, 0, 0, 0, 2, 4, 5, 2
1503598823288,1, -1, -5, -4, -2, -3, -4, -7
1503598823303,2, 2, 1, 0, -3, -3, -2, -1
1503598823311,0, -2, -2, 0, -2, 0, 1, 9
1503598823318,0, 0, -1, -2, -2, -2, 1, -3
1503598823332,2, -1, -1, 0, -1, -1, 0, -3
1503598823340,0, -2, -1, 0, 0, 3, -1, 6
1503598823348,2, -3, -1, 1, 0, -1, 3, 5
1503598823363,1, 1, 0, -1, -2, -4, -1, 0
1503598823369,2, -1, -2, -2, -2, -5, -7, -8
1503598823378,2, -2, 0, 1, 0, 0, 1, 4
1503598823392,0, 0, 0, 0, -2, 0, -2, -1
1503598823400,-4, 0, -2, -2, -1, 0, -3, -7
1503598823411,-3, -1, -2, -1, 1, -1, -3, -4
1503598823423,-3, -2, -2, 0, 0, -1, -3, -7
1503598823429,-4, -2, 0, -1, -2, 0, 4, 0
1503598823438,0, -1, 0, -2, -2, -2, 1, 2
1503598823453,1, 2, 3, 2, 2, 4, -4, 2
1503598823460,2, -1, 0, 0, -1, 1, 3, 3
1503598823468,-3, -15, -5, -2, -3, -3, -2, -5
1503598823483,7, 4, 12, 2, 1, 0, 2, 2
1503598823490,1, 3, 2, -1, 0, 1, 2, 2
1503598823498,-2, -2, -4, -1, -3, -4, -4, -2
1503598823512,-2, 0, -2, -2, -3, -2, -3, -5
1503598823522,-4, 1, -5, -3, 0, -1, 0, 0
1503598823528,0, -1, -5, 0, -1, -2, -4, 2
1503598823545,1, -3, -1, -2, -2, 0, 0, 1
1503598823549,0, -4, -8, -1, -1, -3, 0, 2
1503598823558,0, -3, -2, 0, -1, 0, 0, -1
1503598823572,0, 1, 4, 1, -2, -2, -2, -2
1503598823580,-1, -2, -4, -3, 0, -1, 0, 0
1503598823588,-1, 1, 10, 2, 1, 0, -2, 0
1503598823603,-1, -1, -2, -3, -2, 0, 0, -1
1503598823612,0, 1, -2, -2, 1, -1, 0, 0
1503598823618,-2, -2, 1, 0, 1, 0, -3, -1
1503598823632,1, 2, 1, -1, 0, 0, -1, -1
1503598823640,-2, -5, -8, -1, -2, -1, 0, -2
1503598823648,0, 3, 2, -1, -1, -2, -2, -1
1503598823663,1, 3, 3, 2, 0, 0, -1, 0
1503598823670,-2, -2, -3, -3, -3, -1, 1, -1
1503598823680,-2, -3, 0, 0, -2, -2, -2, -3
1503598823693,-2, -2, -3, -2, -1, 0, 1, -1
1503598823701,-1, 1, -1, -3, 0, -2, -2, 1
1503598823708,-1, -2, -2, -2, -1, 0, -2, -2
1503598823723,-1, 2, 5, 3, 1, 1, 0, 0
1503598823729,-1, -1, -1, -1, -2, -1, -3, -3
1503598823738,-2, -2, -4, -3, -3, -2, -1, -2
1503598823753,0, 0, 0, 1, -1, 1, -1, 3
1503598823760,-3, -4, -4, 0, 0, -3, -2, -2
1503598823768,1, 1, 2, -2, 1, 1, 1, 0
1503598823783,-1, -5, -3, 0, 0, -1, -1, 0
1503598823789,-2, -3, -4, 0, 1, -1, -2, -2
1503598823798,0, -1, 1, 1, -2, 0, 0, -1
1503598823813,-5, -14, -6, 0, -2, -3, -3, -5
1503598823821,4, 15, 21, 1, -1, 1, 3, 2
1503598823828,0, 1, 1, 1, -1, 0, 3, 1
1503598823843,-1, -1, -4, -2, -1, -3, -3, -3
1503598823850,1, 1, 2, -1, -1, -2, -2, -1
1503598823858,0, -3, -5, -3, 1, 3, 1, 2
1503598823872,-2, -1, -2, -1, -1, -1, 0, 1
1503598823880,1, 0, 0, -2, -2, -1, 0, -2
1503598823888,-1, 3, 2, 2, 0, 0, 1, 1
1503598823903,-3, -5, -6, -2, -2, -2, -2, -3
1503598823909,5, 2, 1, -4, -1, 0, 2, 16
1503598823918,-1, -3, -4, -1, -1, -1, -1, 0
1503598823932,-2, 0, 2, 1, 0, -2, -5, -8
1503598823940,1, 0, 0, 0, -2, 0, -3, -4
1503598823952,0, 0, -1, -2, -1, -3, -2, -8
1503598823963,-1, 0, 1, 0, -1, -2, -1, -3
1503598823970,-1, 2, -1, -1, 0, -3, 0, 0
1503598823981,-3, -4, -3, -3, -3, -2, 1, 1
1503598823992,5, 0, -3, -1, -1, 0, 3, 18
1503598824000,-1, 0, 2, -1, 1, 1, 0, 0
1503598824008,-4, -7, -8, -6, -4, -1, -3, -8
1503598824023,6, 4, -3, 2, 0, -1, 0, 9
1503598824030,-2, 0, -1, -2, -3, -2, -3, -7
1503598824038,-1, -4, -5, -2, 2, 2, 2, 5
1503598824052,4, 2, 3, 2, 0, -3, -3, 2
1503598824053,-2, 0, 0, 1, 0, 0, -1, -1
1503598824060,-1, -1, 2, 1, -1, -1, -2, -2
1503598824068,-5, 3, 2, 2, 1, 0, -2, -13
1503598824083,1, 1, 3, 3, -2, -1, -1, 5
1503598824090,-2, 2, -4, -1, -1, 0, -2, -9
1503598824098,-4, -2, -5, -3, -1, -1, 0, -9
1503598824114,-2, -3, -3, -4, -1, 1, 1, 5
1503598824121,5, -4, -5, -2, -2, -1, 1, 8
1503598824128,-2, -7, -6, 0, -1, -1, -2, -1
1503598824143,-6, -5, 2, -1, -1, -3, -4, -7
1503598824151,2, -4, 3, 4, 2, 2, 2, 12
1503598824165,0, 3, 2, -1, -2, -2, 0, -1
1503598824173,0, 1, 0, -1, -2, -5, -2, -2
1503598824182,-3, 1, 1, 0, 0, 0, -1, -5
1503598824196,4, 0, 1, 1, -2, 1, -1, 0
1503598824202,-2, -6, -2, -1, -3, -1, -3, -3
1503598824232,-2, 3, 2, 0, 0, -3, -4, -7
1503598824233,-5, 0, 0, -2, -1, 0, -3, -6
1503598824239,0, 2, 1, 0, -1, -1, -1, 1
1503598824241,5, 3, 0, 0, -1, -1, 1, 5
1503598824257,-1, 0, 2, -2, -1, -1, -2, 1
1503598824263,1, -4, -3, -2, -3, 0, -2, 0
1503598824271,-3, -2, -2, -2, -1, -1, -2, -5
1503598824285,-5, 1, -2, -1, 0, -3, 0, -1
1503598824294,-4, 2, 1, -1, 2, 3, 0, -11
1503598824300,-4, -3, -2, -2, -1, -1, -1, -3
1503598824317,0, 2, 4, 0, -2, -2, -4, -3
1503598824324,-3, -5, -5, -3, -2, 1, 1, 5
1503598824338,0, 0, 3, 3, -1, -2, -1, 4
1503598824348,-2, -3, -4, -3, -3, -2, 0, -5
1503598824354,0, -6, -4, -4, -1, 1, 3, 3
1503598824360,-2, 1, 2, 0, 0, -2, -1, -4
1503598824376,0, 0, 0, -1, 0, 0, 0, 10
1503598824385,-3, 3, -1, -1, 0, 2, 4, 0
1503598824398,-3, 2, 1, -2, 0, 0, -2, -13
1503598824405,1, -2, -3, 0, 0, 2, 1, 4
1503598824417,-4, -4, -7, -4, -1, -1, 0, -5
1503598824420,-1, 2, 3, 1, 0, -1, -5, -18
1503598824436,0, -2, -3, -2, -2, -2, 0, 2
1503598824442,-1, 8, 4, 2, 1, 1, -1, -12
1503598824443,2, 3, 1, 0, -1, -1, 1, 13
1503598824458,2, -4, -5, 0, -1, -1, -2, 0
1503598824465,2, -1, -1, 1, 1, 1, -2, -3
1503598824473,2, 4, 2, -1, 0, -1, 2, 5
1503598824480,-4, 0, 0, 1, -1, -5, -1, -4
1503598824496,-4, -3, 0, 1, 1, 1, -1, -2
1503598824502,1, 0, 1, -2, -4, -5, -3, -3
1503598824511,2, 1, 0, -1, -1, -2, 0, 1
1503598824532,1, -1, 2, -2, 0, 0, -1, 0
1503598824534,1, -1, -1, 2, 1, 3, 1, -2
1503598824540,3, -3, -1, 0, 1, -1, -1, 0
1503598824557,-2, -2, -1, -2, -2, -3, 0, -2
1503598824563,-1, -2, -4, 1, 0, 2, 0, 2
1503598824572,1, 4, 4, -1, -3, -2, -1, 2
1503598824586,2, 6, -8, -1, -2, -1, -1, -4
1503598824593,-4, -8, -5, -2, -1, -1, -3, -6
1503598824600,-2, 7, 4, -2, 1, 0, -1, 4
1503598824621,1, 1, -3, -3, -2, -2, -2, 7
1503598824623,-4, -9, -8, -1, -1, -1, -1, -2
1503598824634,-2, -1, 6, 0, 0, -2, -2, -3
1503598824645,-4, -16, -6, -4, -2, -1, -2, -2
1503598824654,4, 12, 13, 4, 1, 0, 1, 2
1503598824661,1, 3, 2, 0, 1, -2, 0, -4
1503598824676,-2, -8, -10, -3, -1, -2, -2, -2
1503598824685,-1, -4, 5, -1, -3, -1, -1, 1
1503598824692,0, -2, -6, -2, -3, -3, 0, 4
1503598824705,-1, -9, -11, -4, -1, -1, -2, -2
1503598824714,-3, -1, 1, 1, -6, -1, -2, -4
1503598824721,-1, 4, 2, 0, -1, 0, 0, 0
1503598824742,-4, -5, -5, -4, -2, -1, -2, -11
1503598824743,3, 5, 7, 0, -2, -3, 0, -2
1503598824759,-3, -7, -8, -3, -2, -1, 1, 0
1503598824765,1, -1, 2, 0, 2, 0, 0, 0
1503598824773,-2, 1, 3, 0, 0, 0, 0, -1
1503598824781,2, 17, 7, 1, 1, 3, 0, 2
1503598824796,0, -2, -3, -3, -9, -3, 1, -1
1503598824803,-2, -5, -5, 1, 4, 0, 0, -1
1503598824820,-2, 1, -1, -3, -2, -2, 0, 2
1503598824821,1, 1, -1, 0, 2, 2, -2, -2
1503598824826,-2, -6, -2, -1, -3, -2, 1, 1
1503598824833,-2, -5, -1, -1, 0, 0, -1, 1
1503598824848,-4, -7, -6, 0, -1, -1, -2, -5
1503598824856,0, -3, -3, -2, 1, -1, -3, -1
1503598824863,-1, 0, -1, 0, 0, 0, -2, 1
1503598824878,2, 5, 1, 2, 3, 0, 1, 0
1503598824885,-2, -4, -4, -3, -6, -2, 0, -1
1503598824894,-3, -3, -5, -2, 1, 0, 1, -1
1503598824900,1, 1, 1, 0, -2, -1, -1, 0
1503598824919,-1, -2, -4, -5, -1, -2, 1, 2
1503598824920,2, 4, 4, 0, 1, 1, 0, 1
1503598824923,-1, -2, 2, -1, -1, 0, 1, 0
1503598824938,0, -1, -2, -3, 0, -1, 0, 2
1503598824945,-2, -1, -1, -3, -1, -1, -2, -2
1503598824953,-2, -1, 0, 1, 0, -1, -2, -3
1503598824961,-1, -1, 0, -2, 0, 1, 0, -2
1503598824976,-2, 0, 1, 1, 2, 2, 1, 2
1503598824985,0, -3, -2, -1, -1, -1, -1, -1
1503598824998,-1, -4, -4, -3, -4, -1, -2, -3
1503598825005,1, 0, -1, 0, 2, -1, 0, 0
1503598825013,-2, -1, -2, -2, -3, -3, -2, 1
1503598825020,0, 5, 6, 2, -2, -1, -2, -1
1503598825036,-2, -7, -4, -3, -2, 0, -2, 0
1503598825043,4, 17, 29, 9, 3, 1, 4, 1
1503598825058,1, -2, -4, -1, -1, 0, -1, 0
1503598825065,-3, -11, -15, -5, -3, -1, -3, -2
1503598825073,-3, -5, -6, -1, 1, -4, -4, -5
1503598825088,-3, -8, -9, -2, 1, -1, 1, 1
1503598825096,-1, 1, 1, -1, -2, -3, -4, -3
1503598825103,-2, 1, 2, 0, -2, 0, 0, -2
1503598825123,-1, 4, 5, 1, 1, 0, 1, 1
1503598825125,-3, -8, -8, -5, -2, -4, -2, -2
1503598825133,4, 11, 15, 8, 3, 3, 2, 1
1503598825148,0, 3, 3, -1, -1, 0, -1, -2
1503598825157,-2, 0, 0, -3, -2, -1, 0, -3
1503598825163,-3, -12, -13, -4, -2, 0, -1, -1
1503598825178,-1, -4, -5, -2, -1, -1, -2, 0
1503598825188,3, 2, 3, 0, -1, 0, 0, -1
1503598825193,0, 13, 8, 1, -1, -1, -2, -3
1503598825208,2, 10, 13, 2, 2, -1, -1, 1
1503598825216,1, -3, 7, 4, 1, 1, 2, 1
1503598825223,-2, -3, -4, -1, -1, 1, -1, -4
1503598825238,-5, -13, -16, -9, -3, -2, 0, -1
1503598825245,-3, -4, 5, 3, 0, 1, 0, 1
1503598825256,8, 30, 40, 11, 3, -1, 0, 2
1503598825268,0, 4, -12, -6, -4, -4, -3, -3
1503598825276,-6, -15, -29, -7, -2, -2, -2, -3
1503598825283,-2, -13, -17, -6, -3, -3, -3, -3
1503598825299,2, 7, 2, 2, 1, 0, -2, -1
1503598825305,2, 6, -5, 0, 0, -1, 0, 1
1503598825313,-4, -10, -4, -3, -3, 0, 0, 2
1503598825328,-2, -8, -6, -3, -2, 0, 1, 1
1503598825336,-2, -12, -11, -4, -3, -3, -3, -3
1503598825343,-1, -10, -4, -3, -1, -1, 1, 3
1503598825359,-7, -23, -17, -8, -4, 0, -2, -1
1503598825365,3, 14, 20, 8, 2, 1, 1, 3
1503598825374,0, -1, 2, -1, 0, -2, 0, -3
1503598825389,-3, -3, -11, -3, -2, -1, -3, -3
1503598825397,3, 8, 12, 4, 2, 2, 0, -1
1503598825402,3, 6, -10, 0, -1, 0, -3, 0
1503598825420,-1, 1, 7, 0, -1, -1, -1, -1
1503598825426,-1, -4, 6, 0, -1, -1, 1, -2
1503598825433,5, 16, 3, 4, 3, 1, 2, 4
1503598825447,1, 1, 6, -1, -1, -1, 0, -1
1503598825448,-3, 0, 2, -1, -3, -2, -3, -3
1503598825458,0, 9, 21, 3, -1, 1, 1, 0
1503598825463,4, 8, 22, 4, 2, 1, 1, 2
1503598825478,1, 16, -5, -1, 1, 0, 0, 1
1503598825487,-6, -10, -4, 2, -1, -1, -3, -3
1503598825501,-5, -13, -8, -2, -3, -1, -2, -1
1503598825508,-3, -9, -7, -7, -2, -2, -1, -2
1503598825523,0, -6, -19, -5, -3, -1, -3, -1
1503598825525,0, -4, 4, -4, -2, -1, -2, -2
1503598825538,-7, -12, -4, -6, -2, -1, -2, -2
1503598825545,-3, -6, -1, 1, 0, 0, 0, 2
1503598825555,-4, -10, -6, -3, -2, -2, -4, -8
1503598825568,0, -2, 0, 0, 0, -1, 1, 1
1503598825577,2, -3, 5, 5, 1, 1, 1, 1
1503598825583,2, 14, 4, 0, -1, -2, -2, -2
1503598825598,-1, 3, 2, -1, -1, -1, 1, -2
1503598825605,0, -7, -9, -4, -2, 0, -1, 1
1503598825613,0, 2, -6, -2, -2, -4, -4, -3
1503598825628,-3, 7, 6, 1, 1, -1, 0, -2
1503598825636,0, 0, -12, 2, 0, 1, 1, 2
1503598825642,2, 2, 0, 2, 1, 0, -2, -2
1503598825658,-1, 2, 13, 1, -1, -1, 0, 2
1503598825665,1, 5, -13, -2, 0, 2, -1, -1
1503598825673,-1, -9, -8, -6, -3, -1, 2, 0
1503598825689,-6, -17, -6, -6, -5, -2, -3, -2
1503598825696,-2, 16, -2, -1, 1, 0, 0, -2
1503598825697,0, -5, -5, -2, -1, -2, -2, -1
1503598825705,-3, -14, -10, -1, -1, -2, -2, -2
1503598825720,-2, 4, 8, 3, 2, 2, 1, 2
1503598825726,-1, -5, -1, 1, -2, -2, -2, -2
1503598825733,-2, -4, -7, -4, -3, -2, -1, -2
1503598825748,1, 7, 1, -1, -1, -3, -1, 0
1503598825758,0, 6, 11, -3, -3, -2, -2, -1
1503598825763,-2, 3, 11, 3, -1, 0, -1, 1
1503598825778,3, 7, 4, 6, 4, 1, 2, 2
1503598825789,-1, 1, -6, -5, -2, -2, -2, -4
1503598825794,-2, -17, -22, -8, 0, 2, -2, -3
1503598825808,1, 5, 4, -1, -1, 1, -3, -2
1503598825816,-2, -3, 3, -2, -2, -2, -2, -3
1503598825823,-1, 2, -1, -1, -1, -1, -1, -2
1503598825838,2, 3, -6, -1, -1, 1, 2, 1
1503598825845,-2, 1, 0, 1, 0, -1, 2, 3
1503598825853,0, 3, 7, 1, 0, -1, -1, -2
1503598825854,-1, -4, -8, -1, -1, -2, -2, 1
1503598825868,3, 4, 3, 1, 1, 0, 2, 0
1503598825876,-2, -1, 5, 0, -1, -1, -4, 0
1503598825883,0, 0, -8, -4, -2, -2, -2, 0
1503598825900,-4, -4, 0, -3, -3, -1, -1, -4
1503598825906,-5, -10, 0, -4, -3, -1, 0, 0
1503598825913,2, 8, 16, 4, 2, 1, 0, 2
1503598825932,-1, 0, 0, -2, 0, 0, 1, -1
1503598825936,-2, -2, -7, -1, -2, 0, -1, -2
1503598825942,2, 0, -2, -2, 0, 0, 0, 3
1503598825943,0, -1, 3, 2, 0, 0, -2, 1
1503598825959,-1, -7, -11, -4, -2, -1, -1, -3
1503598825966,-1, -8, -7, -2, -1, -1, -1, -1
1503598825973,-2, -6, -9, -1, -1, -1, 0, 1
1503598825995,8, 37, 33, 10, 6, 3, 1, 4
1503598825996,-2, -13, -13, -4, -3, -2, -4, -1
1503598826002,-1, -7, -9, -3, -3, -3, 0, 0
1503598826018,-1, 1, 12, 3, -2, 0, 0, -2
1503598826025,-1, -7, 1, -1, -1, 1, 0, -1
1503598826040,-2, -7, -9, -4, -2, -5, -1, 0
1503598826048,-1, -6, -3, -2, -2, -1, -1, -1
1503598826057,2, 14, 13, 1, 1, 2, 0, 1
1503598826070,0, -2, -3, -1, -2, -1, -4, 0
1503598826078,1, -1, -8, -4, 1, -2, 1, 0
1503598826085,-4, -11, -10, -4, -2, -1, -1, -5
1503598826100,1, 2, 3, 1, 0, 0, -1, -1
1503598826107,0, -3, -5, -2, -1, -2, -1, -2
1503598826115,0, 4, 8, 1, 1, 0, 0, -1
1503598826130,-6, -21, -24, -6, -3, -1, -1, -3
1503598826138,-4, -10, 0, -3, -2, -1, -2, -2
1503598826145,0, 12, 19, 4, -1, 0, 0, -1
1503598826161,2, 7, -3, 0, -1, -1, -1, -1
1503598826168,-2, -4, -9, -3, -1, -2, -3, -2
1503598826175,-1, 5, 4, 1, 0, -1, -1, -2
1503598826191,-2, 5, 1, -2, 1, 1, -1, -1
1503598826198,0, -6, -8, -4, -2, -2, 0, -2
1503598826205,-1, 3, 3, 2, 0, -2, 2, 0
1503598826220,0, -1, -1, 1, 0, -1, 0, 0
1503598826230,2, 6, 1, -2, -2, 0, 0, 4
1503598826236,2, 16, 14, 2, -2, -1, 1, 2
1503598826252,1, 3, 4, 1, 1, -1, 0, -1
1503598826260,1, 10, -1, -2, -2, -1, -1, 0
1503598826266,1, 9, 7, 0, -1, -1, -2, 2
1503598826280,-2, -6, -2, 0, -2, -2, -2, 0
1503598826288,-1, -2, -2, -1, 2, 0, -1, -2
1503598826296,-5, -7, -4, -1, 0, 0, -1, -4
1503598826310,-1, -4, -3, -1, -2, -1, -1, -2
1503598826318,-1, -6, -4, -2, 0, 1, -1, 2
1503598826326,-1, -1, -2, -2, -2, -1, -1, -2
1503598826340,-2, -6, -5, 0, 1, 1, 0, -1
1503598826347,0, 4, -6, -3, -2, -2, -1, -1
1503598826348,0, -4, 1, -1, -1, -1, -2, -1
1503598826356,-1, -8, 3, 2, 0, -1, -1, -1
1503598826370,-2, -6, -14, -1, 0, -1, -2, 1
1503598826378,-2, -1, -3, -4, -3, -3, -2, -3
1503598826385,0, -1, 0, -2, -3, 1, -2, -3
1503598826400,1, -4, -8, -3, -1, 0, 0, -2
1503598826407,1, 5, 4, 0, -1, -3, -3, -4
1503598826408,1, 0, 0, 0, -2, -1, -1, -2
1503598826416,-1, 3, 4, 0, -1, -1, 2, -2
1503598826431,-1, -1, 2, -1, -1, -1, -2, 0
1503598826438,0, 0, -1, -3, 1, 1, 1, 0
1503598826445,0, -5, -7, 1, 0, 0, 1, -1
1503598826461,2, 1, -5, 0, 0, -1, -1, -1
1503598826468,-3, 1, 3, 0, 0, 0, -1, 0
1503598826475,0, -3, 8, 3, 1, -1, 1, 1
1503598826491,0, 7, 9, -1, -1, 0, 0, -3
1503598826492,0, 0, 1, -2, -2, -2, 0, -3
1503598826499,-2, -4, -6, -2, -1, 0, -3, -3
1503598826505,-1, -1, 0, -3, -1, 0, -3, -3
1503598826520,0, 0, -3, -2, -3, -2, -2, -3
1503598826528,-1, -5, -2, -2, -2, -1, 3, -2
1503598826535,-2, -12, -8, 0, 0, 0, -3, 1
1503598826550,-2, 2, 7, 2, 0, 0, 1, 1
1503598826560,1, 6, 3, 0, 0, -1, 0, 0
1503598826573,3, 16, 17, 5, 2, 1, 1, 4
1503598826580,1, 0, -3, -2, -1, -2, -2, -1
1503598826588,-1, 3, -2, -3, -2, -1, -3, -1
1503598826596,-1, 4, 10, 0, 0, -2, -2, -3
1503598826610,-3, -5, -7, -2, -2, -1, -1, -2
1503598826618,-1, -4, -8, -1, -3, -1, -1, 0
1503598826627,-1, -4, -3, -2, -1, -1, 0, -2
1503598826640,-2, 2, 5, 0, -1, -1, 0, 1
1503598826647,2, 2, 4, 0, -1, 1, 1, 1
1503598826656,-3, -10, -9, -4, -3, -1, 0, 0
1503598826670,-1, -11, -12, -3, -2, -4, -2, -4
1503598826678,-1, 0, 3, -1, -1, -1, -1, -1
1503598826685,-4, -5, -6, -2, 0, -1, -2, -3
1503598826700,-1, 8, 7, 2, 1, 0, -1, -1
1503598826701,-2, -2, -4, -2, -3, -1, 0, -4
1503598826708,1, 7, 9, 1, 0, -1, -1, 3
1503598826716,0, 2, 1, -1, 1, 1, -1, 0
1503598826730,2, 0, -3, 0, 1, 0, -1, 1
1503598826738,1, 5, 9, 3, 2, 1, 0, 1
1503598826745,-2, -4, -5, -3, -1, -1, 1, -3
1503598826761,1, 2, -2, 1, -1, -2, -1, 0
1503598826774,-2, 0, 3, 0, -1, -1, -1, 0
1503598826776,0, -1, -1, -2, -1, -2, 0, 0
1503598826790,2, -3, 1, 0, 0, 0, 0, 2
1503598826798,0, -3, -3, -1, -1, -1, -2, -1
1503598826805,-3, -3, -3, -2, 1, 0, 0, -1
1503598826821,1, 7, 6, 2, 0, -1, -1, 1
1503598826828,-1, 0, -1, 1, -3, -1, -1, -1
1503598826837,-4, -3, -3, -2, -2, -1, -2, 1
1503598826850,2, 2, 4, 0, -1, 0, -3, -1
1503598826858,-1, 0, -1, 0, 0, 1, 1, -1
1503598826866,-1, -9, -13, -2, -1, -2, -1, -2
1503598826880,1, 3, 9, 1, 0, -1, 0, -1
1503598826888,-2, -2, -3, -2, -1, -2, -1, -1
1503598826896,-1, -2, -8, -3, -2, -1, -1, -2
1503598826910,2, 6, 3, 2, -1, 0, 1, -1
1503598826918,-1, -4, -6, -2, -2, -1, -2, -3
1503598826927,-2, -3, -4, -1, -2, 0, 0, -1
1503598826940,2, 11, 0, 2, 1, 0, -2, -1
1503598826947,-2, 0, 2, 0, -2, -1, -2, -3
1503598826963,-3, -3, -1, 0, -1, -1, -1, -2
1503598826970,-1, -3, -6, -2, -1, -1, 0, -1
1503598826978,1, -5, -2, 1, -2, -2, -1, 0
1503598826992,-1, 2, 10, 1, 1, -1, -1, 1
1503598827000,-1, 0, 0, -1, -1, 1, -1, 2
1503598827007,-2, -4, -5, -3, -3, 1, -1, -1
1503598827023,-1, 0, 0, -3, 0, 0, -1, 0
1503598827030,2, 15, 16, 6, 0, 1, 1, 1
1503598827038,-1, -6, -2, -1, -1, -1, 0, -3
1503598827052,-1, -9, -12, -4, -1, -2, -2, 0
1503598827063,0, 3, 0, 1, 0, -1, 0, 0
1503598827068,-2, -1, -1, 0, -3, -3, -1, -1
1503598827082,-4, -12, -12, -4, -4, -2, -2, -2
1503598827090,1, 0, 1, 2, 3, -1, 0, -1
1503598827099,-3, 0, 2, 0, -1, 0, -1, 0
1503598827112,-1, 1, -2, -2, -1, -1, -1, -1
1503598827120,1, 4, 6, 1, 0, 0, 0, 0
1503598827129,-2, -1, -2, -1, 0, 0, -1, -1
1503598827142,-2, -3, 0, 1, 0, 0, -1, 1
1503598827150,2, 4, 7, 1, -2, 0, -1, -1
1503598827158,-3, -3, 0, -2, -1, 0, -2, -4
1503598827173,-3, -8, -9, -2, -2, 0, -2, -1
1503598827180,2, 2, 4, 2, 0, 0, 1, 2
1503598827187,-2, -3, -2, -2, 0, -2, -2, 0
1503598827188,-2, -4, -3, -2, -2, -2, -1, 0
1503598827203,-1, -1, -4, -2, -1, 0, 0, -1
1503598827210,-2, 0, 3, 0, -1, -2, 0, -1
1503598827218,1, 3, 1, -1, -2, -1, -1, -2
1503598827232,-1, -1, 1, -1, -1, -1, -2, -4
1503598827242,-2, -5, -4, -1, 0, -3, -1, -3
1503598827247,0, 0, 0, 1, -1, 1, 0, -1
1503598827264,-2, -4, -4, -2, -1, -1, -1, -1
1503598827270,-1, -3, -1, -1, 0, -2, 1, 0
1503598827278,0, 0, -1, 0, -1, 0, -1, 1
1503598827292,1, 5, 2, 0, -1, 0, -1, 2
1503598827302,-1, 1, 2, 0, -1, -1, -1, 0
1503598827308,-1, -3, -5, 0, -1, 0, -2, 0
1503598827323,0, -1, -1, -2, -1, 0, 0, 0
1503598827331,0, -1, -1, -2, 0, -3, -1, -3
1503598827339,-2, -4, -5, -2, -1, -1, -2, -4
1503598827352,-5, -6, -4, -3, -2, -3, 0, -3
1503598827361,0, 0, -1, -1, -2, 0, -1, 0
1503598827368,1, 0, -3, -2, -1, 2, -2, -2
1503598827383,0, 4, -5, 0, 0, -1, 0, -2
1503598827390,-2, 3, 1, 0, -2, 0, -1, 0
1503598827399,1, 8, 9, 1, 1, 0, -2, 1
1503598827414,2, 6, 8, 2, 0, 0, 0, 0
1503598827423,-2, -4, 0, -1, 0, -1, -1, 2
1503598827428,1, 2, 4, 0, -1, 0, 0, 0
1503598827444,1, -5, -4, -1, -2, 0, 0, -1
1503598827450,0, -4, -7, 0, -1, 0, 0, -1
1503598827458,-1, -2, -2, 0, 0, -1, -1, 0
1503598827474,0, 0, 2, 0, -1, 0, 1, -3
1503598827480,0, 0, 3, -1, -2, -1, -1, -1
1503598827488,-1, 2, 2, 1, 0, 0, -1, 0
1503598827503,-2, 0, -3, 0, 0, 0, -1, 0
1503598827511,-3, -5, -6, -3, -1, -1, 0, -3
1503598827518,1, 1, 0, -2, 0, 1, -1, -1
1503598827532,-1, 1, 0, -2, 0, -2, -1, 0
1503598827541,-3, -1, -1, 0, -2, 0, -2, -3
1503598827547,0, -2, -4, -1, 0, 1, -2, 1
1503598827565,0, -4, -5, -2, -1, -2, 0, -3
1503598827571,1, 4, 6, 2, -2, -1, 1, 1
1503598827579,1, -2, -1, 1, -2, -1, -1, 0
1503598827580,-1, -2, -2, -2, -2, -1, -1, 0
1503598827592,0, 2, -2, -1, -1, 0, -2, -1
1503598827600,0, -4, -4, -2, -2, -1, 0, 0
1503598827608,-1, -6, -6, -4, -3, -1, -1, -3
1503598827622,-2, -2, -4, -1, -2, -1, -1, -2
1503598827623,0, 0, -1, 0, 0, -1, -1, 0
1503598827634,0, -4, -2, 1, -1, 0, 1, -1
1503598827639,-1, 3, 7, 2, 0, 0, 0, -1
1503598827652,0, -3, -3, -3, 0, -3, 0, 0
1503598827660,0, -2, -3, -2, -2, -2, 0, -1
1503598827668,-1, -2, 1, 1, -1, -1, -2, -2
1503598827682,0, -1, 1, -1, -1, 0, -2, -3
1503598827690,1, 6, 4, -1, -1, -1, -1, 1
1503598827699,0, 2, 3, 0, -1, 0, -2, 0
1503598827712,-1, -7, -7, -2, -2, -1, -1, -1
1503598827720,-1, -3, -4, -1, 1, -1, -1, 0
1503598827727,0, -2, -5, -3, -1, 1, -1, -1
1503598827742,0, 2, 2, 1, 0, 0, 1, -1
1503598827750,-2, -4, -1, -4, 1, 1, 0, -1
1503598827758,0, -1, -3, 0, -2, -1, 1, 1
1503598827774,-1, 1, -2, 0, 0, 0, -1, 0
1503598827780,2, 13, 17, 2, -1, -1, 0, 0
1503598827788,-1, -1, -2, -2, -2, 0, -2, 1
1503598827803,-2, -7, -8, 0, 0, -1, -1, -2
1503598827810,-3, -3, -3, -1, 0, -1, -1, -2
1503598827818,-5, -12, -13, -5, -1, -1, -1, 1
1503598827835,-2, -7, -2, 0, -1, -1, 0, -2
1503598827841,0, -3, -1, -2, -1, -2, -1, -2
1503598827847,0, 3, 3, 2, 1, -1, -2, 1
1503598827862,-3, -6, -4, -2, -1, 1, -2, 2
1503598827870,0, 4, 5, 0, -2, 0, 0, -1
1503598827885,-2, -1, -3, 1, -2, -1, -2, -2
1503598827892,-1, -3, 0, -2, -1, -1, -1, 0
1503598827901,0, -3, 0, 0, -1, -2, 0, 2
1503598827902,1, 5, 4, 0, 1, -1, -1, 0
1503598827914,-1, 3, 4, 2, -1, 0, -2, -1
1503598827923,-2, -5, -7, -3, -2, -1, -1, -4
1503598827930,1, -4, -8, -1, 0, -1, -1, -1
1503598827945,0, 0, 3, 1, -2, 1, 0, -1
1503598827952,-2, -4, -6, -3, -2, -2, -2, -1
1503598827960,0, 1, 3, 0, 1, 1, -2, -2
1503598827979,-1, -3, -2, 0, -1, -1, 1, 1
1503598827982,-1, 1, 2, -2, 0, -2, 0, 3
1503598827990,0, 4, 6, 1, -1, 0, -1, 1
1503598828005,1, 3, 1, 0, -2, -3, -1, -1
1503598828012,-1, 1, -3, -3, 0, -2, 1, -3
1503598828020,0, 0, -5, -1, -1, 0, 0, -1
1503598828034,-2, -2, -3, -2, -3, 0, -1, 0
1503598828044,-3, -3, -2, -1, -2, 0, 0, 0
1503598828057,-2, -1, -1, -1, -1, 0, 0, -2
1503598828067,1, 4, 3, 1, -1, -3, -2, -4
1503598828080,2, 0, 0, 1, -1, -3, -1, 0
1503598828081,-1, -2, -5, -3, 0, 0, -1, 1
1503598828094,-1, -1, -1, -1, 0, 0, -1, 0
1503598828103,-2, -2, -1, -3, -2, -3, -1, 1
1503598828110,1, 0, 0, -1, -1, 0, 1, 1
1503598828125,-3, -3, -3, -2, 0, 0, -1, -4
1503598828134,1, 4, 7, 0, 1, 0, -1, -1
1503598828141,-3, 0, 4, 1, 1, 1, 0, 2
1503598828154,-3, -4, -4, -1, 0, -2, -1, -2
1503598828162,1, 2, 3, 1, -1, -1, -2, -2
1503598828163,1, -2, -2, 1, -1, 0, -1, -4
1503598828171,1, 3, -1, 0, -1, 0, -1, -1
1503598828185,0, -1, -1, -1, -1, -3, -1, -2
1503598828192,-3, -4, -5, -1, -2, -1, 0, 0
1503598828203,1, 2, 1, -1, -1, 0, -1, 2
1503598828214,-1, -3, -3, -2, -2, -2, -1, -1
1503598828222,1, 0, -2, -3, -1, 0, -1, -1
1503598828230,-1, 0, 1, 0, 1, -2, -1, 0
1503598828245,-1, -2, -3, -2, -1, -1, -3, -1
1503598828252,0, 0, 2, 1, -2, 0, -2, -1
1503598828263,-1, -2, -4, -2, -1, -1, -1, 1
1503598828275,-2, -6, -8, -2, 0, -2, -1, -3
1503598828283,-1, -2, 0, 1, -2, -1, -1, -3
1503598828290,-1, -4, -6, -3, 0, 1, 0, -1
1503598828305,-1, 0, -1, 0, 1, -1, -1, 0
1503598828312,0, -2, -4, -1, -2, -2, -2, -1
1503598828320,-1, -2, -2, -2, -2, -1, 0, 0
1503598828336,0, -4, -2, 0, 0, 1, -1, 2
1503598828343,0, -2, -1, -1, -1, -1, -2, 1
1503598828350,-1, -3, -4, -2, -2, 0, -1, -2
1503598828365,0, -2, -2, -1, 0, -1, 0, 0
1503598828372,-3, -2, -3, -1, -1, -2, -1, 1
1503598828380,0, 5, 0, 1, -1, 1, 0, -1
1503598828394,1, 0, 3, 1, -1, 0, 0, -3
1503598828404,-2, -1, 3, 0, 0, 1, 0, -4
1503598828411,-2, 0, 3, -1, -1, 0, 1, -2
1503598828425,-1, -4, -4, -1, 0, -1, -1, -1
1503598828432,0, 1, 0, -1, 0, -1, -1, 1
1503598828440,1, 8, 4, 1, 1, -1, 1, -2
1503598828454,-1, -4, -1, -2, -1, -1, -1, -2
1503598828462,-3, -6, -6, -3, -1, -2, -2, 2
1503598828471,0, 0, 1, 0, 0, -1, -1, -2
1503598828485,2, -1, 2, 1, 0, -1, 1, -2
1503598828492,-1, -3, -2, -1, -1, -1, -1, 1
1503598828508,-2, -3, -3, -2, -1, -2, -1, 1
1503598828514,-1, 3, -1, 0, -2, 1, -1, -1
1503598828522,0, -2, 0, -1, -2, -3, 0, 0
1503598828530,-1, 3, 1, -1, -1, 0, -1, -1
1503598828545,-1, 0, 5, 0, -1, 0, -2, 1
1503598828551,0, -1, -2, -1, 0, -1, -2, 0
1503598828552,-1, -1, 1, 0, 0, -2, -1, -1
1503598828560,-2, -9, -9, -2, 0, -3, -1, -3
1503598828576,1, 0, 1, -1, -1, 0, 0, -3
1503598828583,-2, 0, -2, -2, 0, 1, -4, -1
1503598828590,-1, 0, 0, 1, 0, -1, 0, -1
1503598828605,-1, -2, -5, -2, -2, 1, 0, 0
1503598828613,-1, -1, -3, -2, 0, -1, -1, -1
1503598828620,1, 4, 3, 0, -1, 2, -2, -1
1503598828635,1, -4, -2, -1, -2, 0, 0, -2
1503598828645,-1, -1, -1, -1, -1, 0, 1, 1
1503598828646,0, -1, 1, -1, -1, -2, 0, -1
1503598828650,-2, 0, 0, -1, -1, -3, -2, -1
1503598828665,0, 1, -10, -1, 0, 0, 0, 1
1503598828672,0, -2, 1, -1, -2, -1, 1, 1
1503598828680,0, 5, 8, 2, -2, -2, -1, -1
1503598828694,0, 1, -4, 0, -1, 0, -1, 0
1503598828704,-1, -3, -4, -2, -1, -2, 0, 0
1503598828712,0, 1, 0, -1, -2, 0, -4, -2
1503598828725,-1, -2, 0, 1, -1, 0, -1, -1
1503598828732,0, 1, 4, 1, -1, -2, 1, 0
1503598828740,0, -2, 2, -1, -1, -1, -1, -5
1503598828754,-1, -4, -4, -1, 0, 1, -2, -1
1503598828762,-1, -1, 5, 0, 0, 0, 1, 0
1503598828771,0, -3, -8, -1, 0, 1, 0, -1
1503598828785,1, 7, 5, 1, -3, -1, -2, 0
1503598828792,-1, -5, -3, -2, 0, -1, 0, 2
1503598828808,-1, 0, -3, 1, -1, -2, 1, -1
1503598828815,-2, 0, 3, 0, -1, -1, 0, -2
1503598828822,0, 1, 6, 1, -1, -2, -1, 2
1503598828839,-3, 0, 0, -1, -1, -1, 0, 0
1503598828846,-2, -3, -8, -3, -1, -1, -1, 0
1503598828852,0, 1, 1, 0, 0, -1, -1, -1
1503598828867,1, 3, 2, 0, 0, -1, -1, -3
1503598828868,-2, -6, -6, -2, 1, -1, -3, -2
1503598828878,-1, -1, 0, -1, -4, -2, -2, -2
1503598828882,-3, -6, -3, -1, -2, 1, 1, -2
1503598828897,1, -2, -2, -1, 0, -1, -1, -1
1503598828905,0, -7, -9, -2, -2, -3, -2, -1
1503598828919,0, 1, -1, 1, -2, -1, -1, -2
1503598828928,0, 0, -1, -2, 1, 1, 1, -1
1503598828934,0, 1, 5, 2, 2, 1, -1, -1
1503598828943,-1, -3, 0, -1, -1, -2, 0, -1
1503598828957,-1, -5, -7, -1, -1, 0, 0, -1
1503598828965,0, 1, -1, -1, -1, -2, 1, 1
1503598828972,-2, -1, -3, -2, -2, -2, -1, 0
1503598828988,-4, -2, -2, -1, 0, -1, -2, -3
1503598828995,0, -2, 0, 1, -1, -1, 0, -1
1503598829004,-2, -4, -3, -3, -1, 0, -1, 0
1503598829005,-1, -3, -1, 1, -1, 1, 1, -3
1503598829017,0, 3, 2, 0, 0, 0, -2, -1
1503598829025,-1, 2, 2, -1, -1, -2, -1, 1
1503598829032,1, 7, 10, 0, 0, 0, -1, -2
1503598829055,0, 2, 6, 1, 0, 1, 0, 0
1503598829056,-3, 0, -2, -2, -1, -3, 0, -1
1503598829062,-1, 2, 1, 0, 0, -2, -2, 0
1503598829077,-2, -4, -4, -2, -1, -2, -1, -4
1503598829085,0, -1, -5, -3, -2, 0, 0, -2
1503598829092,0, 0, -3, -1, 0, -1, 1, 3
1503598829108,0, -6, 0, -1, -1, -1, -1, -2
1503598829116,-1, -4, -3, 0, -1, 0, -3, -1
1503598829122,-2, -1, -1, 0, 0, 1, -1, -2
1503598829140,-1, -3, 1, -2, 0, 0, -2, 0
1503598829145,-2, -1, 0, -1, -1, -1, -1, -2
1503598829152,1, -1, -4, -1, 0, -2, -1, -1
1503598829167,-1, 1, 0, -1, 1, -1, 0, 2
1503598829175,1, 1, -1, -2, -2, 1, -1, 0
1503598829183,1, 4, 6, 3, 1, -1, 0, 0
1503598829198,-1, 0, 1, 0, -1, -1, 0, -1
1503598829207,-1, -3, -3, -1, -3, -2, -1, 0
1503598829208,-4, 0, -3, -2, -3, -2, -2, -1
1503598829213,-1, 0, -2, 1, 1, -1, -1, -1
1503598829227,-1, 0, 0, -2, 0, -1, 1, 0
1503598829235,0, -4, -6, -4, -3, -3, -2, -3
1503598829243,1, -1, -2, -1, -1, -2, -1, 0
1503598829257,-2, -3, 0, -1, -1, -1, 0, -2
1503598829266,0, -3, -1, -1, 0, -1, 0, 1
1503598829275,0, 3, 3, 2, 0, 0, -3, 1
1503598829287,0, -2, 0, -1, -2, -2, -3, -2
1503598829294,-2, -2, -1, -3, 1, -1, 0, -2
1503598829303,0, -3, -3, 1, -1, 0, 0, -1
1503598829318,-2, -3, -1, 0, -2, -1, -1, -1
1503598829325,0, 4, 4, -2, -1, 0, -1, 0
1503598829341,-1, 0, 2, 1, 1, 0, 0, 1
1503598829347,-3, 0, 3, 1, 0, -1, -1, -2
1503598829362,-2, -4, -4, -3, 0, -1, -2, -1
1503598829364,-3, -1, -3, 0, 1, -1, -2, -1
1503598829379,-1, -2, -1, -1, -1, -2, 0, -1
1503598829385,-2, -4, -2, -2, -1, -1, -3, -2
1503598829392,0, 2, 2, 1, 0, -1, 1, 2
1503598829408,1, -2, -6, -3, -1, -1, 0, -3
1503598829414,0, -2, -2, -2, -2, -1, 0, -1
1503598829422,-2, -5, -3, 1, -1, -1, 1, 1
1503598829437,-1, -2, -4, -1, -2, 0, 1, 0
1503598829447,1, -2, -1, -1, -2, -1, -2, -3
1503598829461,0, 11, 15, 0, -2, 0, 1, -1
1503598829467,-1, 0, 0, -1, -1, 0, 1, 1
1503598829476,-1, -10, -11, -3, -1, 0, -2, -1
1503598829483,-1, 1, -1, -2, -1, -2, -1, 1
1503598829498,-1, 1, -3, -1, -1, -1, -2, 2
1503598829505,1, -1, 0, 1, -1, 1, -2, 0
1503598829521,-1, -3, 0, 0, -1, 0, 0, -2
1503598829527,-1, -1, 0, -1, -1, -2, 0, -2
1503598829535,0, -3, -8, 0, -1, -1, -1, -2
1503598829543,1, 3, -1, 1, -1, 0, 2, 2
1503598829558,-4, -9, -10, -5, -1, -1, -2, -1
1503598829565,-1, -5, -4, -4, 0, -1, -3, 0
1503598829581,-1, -7, -7, -3, 1, -2, -1, 0
1503598829588,0, 0, 3, 0, 0, 0, -1, -2
1503598829595,-1, -3, 0, -1, -1, 1, -1, -1
1503598829602,-2, 2, -2, -1, -1, -1, -1, -1
1503598829619,-2, -4, -5, -2, -1, -2, 0, -1
1503598829625,-1, -2, -8, -1, -1, -1, 0, -1
1503598829643,0, 2, 4, -1, -1, 0, -2, -1
1503598829648,-1, -2, -3, -1, -1, -1, 0, -1
1503598829655,2, 3, 3, 3, 0, -1, 0, 0
1503598829662,-1, -3, -2, 0, -1, -1, -2, -2
1503598829680,-1, 6, 7, 0, -1, 0, 0, -2
1503598829685,0, 0, 4, 0, 0, -1, -1, 0
1503598829700,0, 0, 2, -1, -2, -1, -2, 0
1503598829709,-1, -5, -5, -3, -1, -1, 0, -1
1503598829715,0, -6, -10, -3, 0, -2, 0, -2
1503598829716,1, 11, 11, 2, 0, -1, -1, -1
1503598829722,-3, -3, -3, 0, -2, 1, -2, -2
1503598829738,2, -4, -4, -1, -1, -2, -2, 0
1503598829746,-1, 0, 2, -3, -1, 0, 0, -2
1503598829761,-2, -3, -3, 0, 0, -1, 0, -2
1503598829767,2, 1, -3, -2, -1, -1, -1, 2
1503598829776,-1, -2, 4, -1, 0, -2, -1, -2
1503598829777,-1, -3, -6, -3, -2, -1, -2, -1
1503598829790,-2, 3, 1, 0, -1, -1, -1, 0
1503598829798,-2, -1, 2, 0, -1, 0, -2, 0
1503598829805,-1, -2, -2, -1, -1, -2, -2, -1
1503598829821,-1, -6, -1, -2, -1, 0, -1, 1
1503598829827,1, 1, 3, 1, 1, -1, 0, 0
1503598829835,-2, -3, -5, -2, -1, -1, 0, -1
1503598829850,1, -2, -1, -1, -2, -1, -1, -2
1503598829851,-2, 1, 1, 0, 0, 2, -2, -2
1503598829858,-1, -1, -1, 0, -1, -3, 0, -2
1503598829865,0, 1, 0, -1, -2, 0, -2, -5
1503598829881,0, 0, 2, 0, 0, 1, 1, -3
1503598829887,1, 6, 7, -2, -1, -1, -1, -1
1503598829895,-2, 5, 3, 0, 0, -2, -1, 0
1503598829910,0, -5, -8, -2, 0, -3, -1, -1
1503598829918,-1, -4, -3, -2, -1, -1, -2, 0
1503598829925,0, -3, 0, 1, -1, -2, 0, 3
1503598829941,0, 0, -4, -2, -1, -3, -1, -1
1503598829947,1, 0, 6, 1, 0, -1, 0, -2
1503598829948,0, -1, -1, 0, -2, -1, -1, -3
1503598829956,-3, -1, -4, -2, -1, -1, 0, -1
1503598829970,-1, 0, -1, 1, 0, 0, -2, -1
1503598829978,0, 6, 8, 1, 0, -2, -2, 1
1503598829985,-1, -3, -2, -1, -2, -2, 0, 0
1503598830001,-1, -2, -2, 1, 0, 0, -2, -2
1503598830010,1, 5, 7, 0, -1, -1, -1, 0
1503598830016,-1, -4, -6, 1, -1, -1, 0, -3
1503598830030,-2, -4, -4, -2, 0, 0, 1, -2
1503598830038,-1, -5, -2, -2, -1, 1, -2, -2
1503598830045,-1, -2, -3, -3, -1, -2, 0, -2
1503598830061,1, -3, -2, 0, 0, 0, 2, 0
1503598830069,1, -1, 2, 1, -1, -1, 0, 1
1503598830078,0, 0, -1, -2, -2, -2, -1, 0
1503598830090,-2, -1, -2, -1, 0, 0, -1, 1
1503598830098,0, 0, 1, -1, -1, 0, -2, 0
1503598830105,0, 0, -1, -1, -1, -1, -1, 0
1503598830121,-2, -3, -1, 0, -1, 2, 0, -2
1503598830127,-2, -2, -2, 0, -1, 0, 0, -2
1503598830135,0, 5, 5, 1, 1, -1, 1, 2
1503598830150,2, 8, 6, 1, 0, -1, -2, 1
1503598830158,-2, -4, -6, -3, 0, -2, -3, -3
1503598830165,-3, -3, -3, -3, -3, -1, 0, -2
1503598830181,1, 1, 1, 0, -3, -1, 0, -1
1503598830188,-1, 5, 9, 3, 0, -2, -1, -2
1503598830195,-3, -3, -1, -1, 0, -1, -1, -1
1503598830213,-1, -6, -7, -2, -1, 0, 0, 0
1503598830218,-1, 3, 4, 1, 0, 1, 1, 1
1503598830225,-1, -2, -3, -1, -2, 0, -1, -2
1503598830240,1, 2, 1, -1, -1, -2, -1, 0
1503598830249,-1, 1, 2, 0, -1, -2, -1, 1
1503598830250,-2, -5, -4, -4, 0, -2, -1, 0
1503598830265,-2, -3, -3, -3, -1, -1, -2, -1
1503598830279,-1, -4, -3, -1, -1, 0, -1, 1
1503598830280,-1, -5, -4, 0, 0, -1, -3, -2
1503598830285,-2, -7, -7, 0, -1, 0, -1, -4
1503598830300,0, 6, 8, 0, -1, -1, -1, -3
1503598830301,0, -6, 2, 0, -1, 0, 0, -2
1503598830307,0, 0, -1, 0, -1, -2, -2, -2
1503598830316,0, -4, -8, -2, -2, -1, -2, -3
1503598830330,-1, 4, 2, 0, 0, 0, -1, -1
1503598830338,0, 1, 3, 0, 0, -1, 0, 4
1503598830346,1, 0, -2, 0, 0, 0, -1, 1
1503598830361,-3, 2, 0, 1, -1, 0, 1, -1
1503598830367,1, -1, 0, -3, -2, -2, -2, -1
1503598830375,-1, 1, -1, 0, 0, -2, -2, -1
1503598830390,-2, -1, -1, -2, -4, -2, -1, -1
1503598830398,-1, 0, -2, -4, -9, -3, -1, -2
1503598830405,0, 1, 3, 4, 14, 2, 1, -2
1503598830421,-1, 4, 5, 0, 0, -2, -1, -1
1503598830427,-1, -2, -3, -1, -6, -2, -1, -2
1503598830435,0, -2, -3, -2, 1, 3, 1, -3
1503598830451,-1, -1, 0, -1, -1, -2, -1, -1
1503598830458,0, -1, -1, 0, -1, -1, -2, -1
1503598830465,1, -1, -1, -2, 0, -1, 0, -1
1503598830487,1, 0, -1, 2, 4, 1, -2, -5
1503598830489,-2, -1, 1, -5, -5, -1, -1, -10
1503598830502,-1, 0, -1, 1, -1, -2, -1, -8
1503598830503,0, 1, 2, 6, 1, 1, 1, -8
1503598830512,0, -2, -5, -11, -11, -5, -5, -10
1503598830519,-1, -1, 4, 10, -1, -2, -1, -7
1503598830525,-1, 6, 12, 4, 0, 0, 0, -4
1503598830541,-2, -2, -3, -6, -1, -2, 0, -1
1503598830548,-2, -3, -4, -5, -9, -4, -1, 1
1503598830549,0, 4, 1, 2, 1, 1, -1, 2
1503598830555,-3, 2, -1, 1, 0, 2, -1, 3
1503598830556,0, 0, 2, 4, 4, 3, 2, 5
1503598830570,0, -5, -6, -5, 0, -2, 0, 6
1503598830580,2, 0, -3, 2, 4, 0, 1, 8
1503598830585,-1, -3, -5, -1, -3, 0, 6, 11
1503598830601,-2, -4, -9, -11, -8, -2, -3, 10
1503598830607,-1, -4, -9, -4, -2, 0, -5, 6
1503598830623,0, -2, -4, -2, -3, -2, -5, 5
1503598830630,-2, -3, -4, -2, -3, -2, -6, -1
1503598830649,-1, 1, 5, 8, 4, 2, 0, 3
1503598830661,-2, 0, 0, -2, -2, -4, 0, 0
1503598830668,-1, -2, -2, 3, 1, 1, 1, -2
1503598830683,-4, -1, 1, -1, 2, 0, 0, -1
1503598830690,1, 0, -3, -1, 5, -1, 0, 0
1503598830698,-4, -3, -2, -7, -2, 1, 2, -4
1503598830715,2, 0, 4, 0, -6, -2, 0, -4
1503598830721,-1, -3, -4, -2, 0, 1, 0, -4
1503598830722,2, -1, 0, -2, -2, -1, 0, -4
1503598830727,-2, 0, 6, 4, 2, -1, 0, -2
1503598830742,-1, 3, 1, -1, -4, -2, -2, -2
1503598830751,-2, -7, -8, -3, -1, -1, -2, -1
1503598830758,-1, -2, -4, -4, -2, -2, -3, -1
1503598830772,-2, -4, -3, -2, -3, 0, 1, 1
1503598830783,4, -1, -9, 0, 2, 0, -2, 0
1503598830788,11, 14, 21, 9, 4, 1, 1, 4
1503598830802,1, 3, 4, -1, -1, 0, 1, 2
1503598830810,-5, -2, -5, -1, -1, -2, -2, -1
1503598830825,-1, 3, 4, 3, 1, -4, 0, -3
1503598830832,-7, -2, -3, -2, -2, 0, 0, -1
1503598830842,-4, -6, -3, 1, 0, -2, -2, -3
1503598830848,-3, 1, 1, -2, 0, 0, -1, -5
1503598830862,2, 4, 7, 8, 5, 3, 4, 4
1503598830870,3, -1, -4, -1, -1, -3, 0, -1
1503598830887,1, -1, -4, -6, -6, -5, -5, -2
1503598830892,-2, -3, 0, 5, 5, 0, 1, 2
1503598830901,-2, -6, -3, -1, -2, 0, -2, -1
1503598830907,-8, -9, -7, -6, -4, -2, -1, -2
1503598830923,-5, -3, 4, 0, 0, 0, 0, -7
1503598830930,4, 0, 1, 2, 2, 2, -1, -1
1503598830938,2, 4, -3, -2, -3, 0, -1, 2
1503598830953,-5, -7, -8, -5, -5, -3, -5, -10
1503598830961,-4, -5, -10, -3, -2, -3, -3, -2
1503598830967,0, 2, -3, -1, -2, 1, -3, 2
1503598830983,0, -6, -3, -3, -1, -1, -1, 2
1503598830990,-1, -3, -6, -1, -1, -2, -5, -3
1503598830991,-1, 2, 2, -2, -2, -1, 0, 0
1503598830998,3, 0, -7, -4, -1, 1, 0, 1
1503598831016,1, 1, 1, -1, 0, -2, -1, 3
1503598831021,-2, -2, -1, 1, 1, 1, 2, -3
1503598831028,1, 3, 9, 3, 0, 1, 1, 5
1503598831042,1, 5, 14, -1, -3, -3, -1, 2
1503598831050,-4, -2, -5, -3, -4, -3, 1, 4
1503598831058,6, 9, 10, 3, 1, 1, -2, -7
1503598831072,0, -5, -15, -7, -2, -3, -1, -3
1503598831083,-4, -15, -7, -2, 1, 0, 0, 1
1503598831088,-1, 0, 11, 2, 2, 1, -2, -1
1503598831102,1, 5, 3, 2, -1, -2, -2, -1
1503598831110,0, 0, -2, -3, 0, -1, 0, 0
1503598831121,-4, -4, -5, 2, -1, 1, -1, -1
1503598831133,1, 4, 3, 2, 0, -2, -1, -2
1503598831141,-1, 6, -3, -2, -1, -2, 0, 3
1503598831150,-2, -6, -4, -2, -5, -3, -2, -4
1503598831162,3, 5, 2, 2, -2, 1, 0, -11
1503598831170,1, -5, -6, -2, -1, 1, -3, -2
1503598831178,-12, -7, -8, -4, -4, -4, -7, -11
1503598831193,-1, 0, 3, 2, 3, 3, 7, 1
1503598831200,-7, -9, -11, -6, -3, -2, -1, -4
1503598831208,0, 0, 0, -1, -1, -2, 0, 3
1503598831222,0, -2, -2, 0, -1, 1, -2, -7
1503598831223,3, 3, -3, -2, -1, -1, 0, 6
1503598831230,-2, 2, -1, 0, -3, -3, -3, 0
1503598831238,6, 2, 5, 0, 0, 1, 2, 13
1503598831254,-6, -6, -9, -3, -1, -2, -3, -2
1503598831262,-1, 8, 23, 8, 3, 1, 0, -6
1503598831268,-2, 0, -3, -4, -2, -4, -2, -16
1503598831285,3, -4, -8, -5, -1, -1, 1, 2
1503598831290,-2, 6, 8, 3, 1, 1, -3, -11
1503598831298,-1, -3, -2, -1, -1, -1, 0, 4
1503598831312,4, -6, -2, -3, -2, 0, 2, 12
1503598831327,-4, -7, -3, 0, -2, 0, -3, -6
1503598831328,6, 6, -1, 1, -1, -1, 0, 8
1503598831342,-9, -13, -14, -6, -4, -1, 0, -5
1503598831351,3, 1, 3, 0, -2, -1, -1, 11
1503598831358,3, -3, -5, -3, 0, 1, 2, -1
1503598831372,-3, 0, -3, -1, 1, 0, -1, -3
1503598831383,0, 1, 0, -1, -2, -3, 0, -5
1503598831388,0, 3, 0, -2, 1, 1, -1, -5
1503598831402,0, 2, 2, 0, -1, -3, -7, -4
1503598831410,-6, -5, 0, 2, 11, 3, 1, -9
1503598831420,-1, -4, 0, -2, 0, 1, 1, 3
1503598831432,-6, -3, -3, -1, -4, 0, -4, -12
1503598831441,4, 2, 3, 1, 3, 0, 5, 17
1503598831447,5, -1, -2, -1, -4, -3, -1, 0
1503598831463,0, 0, -1, 0, -1, 0, 2, 4
1503598831470,-6, -2, -2, -3, -3, -2, -2, -2
1503598831478,-5, 2, -2, -2, -1, -5, -7, -12
1503598831493,-8, 0, 3, 0, -3, -1, 3, -8
1503598831501,-1, 1, 5, 2, 1, 0, -3, -15
1503598831507,2, -4, -7, -1, -4, -1, -2, -8
1503598831522,5, 5, 2, 0, -2, -2, -3, -4
1503598831523,-2, -4, -6, 0, -3, 0, 1, 13
1503598831530,5, -1, -6, -1, 0, 0, 2, 5
1503598831538,-5, -2, -1, 0, 0, 1, -1, -5
1503598831553,-2, -5, -7, -5, -4, -1, -3, 5
1503598831561,13, 6, 3, 2, -2, -2, 1, 5
1503598831567,3, 0, 4, 0, 2, -2, 1, 2
1503598831583,-3, -2, -1, -2, 0, 1, -3, -6
1503598831590,19, 4, 3, 1, -3, -3, 1, 15
1503598831598,-6, 0, -1, -2, 0, 1, 1, -8
1503598831613,-4, 0, -6, 0, 0, 2, -1, -20
1503598831623,-2, -3, -3, -1, -2, -1, -5, 6
1503598831634,-4, -1, 2, -1, 1, 0, 1, 15
1503598831642,-4, 1, 2, -1, -3, -3, -7, -10
1503598831652,-2, -1, -1, -2, 0, 0, 6, 12
1503598831665,1, 1, -1, -2, 0, -1, 1, 0
1503598831672,-2, 4, 10, 0, -25, -6, -2, -3
1503598831680,2, 1, -2, 1, -4, -3, 7, 1
1503598831694,-6, 2, 4, 0, 2, 2, -12, -24
1503598831702,-2, -3, -2, -1, 0, 0, 0, 5
1503598831710,11, 0, 1, -1, 2, 2, 6, 32
1503598831725,-3, -2, 0, 1, 5, 2, 7, 9
1503598831732,2, -2, -2, -4, -8, -5, -2, 0
1503598831733,-7, -1, -2, 0, 5, 0, -3, -10
1503598831741,-1, 2, 6, 2, 0, 0, 0, 1
1503598831755,3, 1, 1, 0, 3, 1, 1, 0
1503598831763,3, 1, -2, 0, 9, 5, -1, -3
1503598831770,-6, -4, -2, 1, 7, 5, 3, -12
1503598831789,0, 2, -3, -1, -2, -3, -1, -7
1503598831792,-7, -5, -4, -7, -1, -1, -2, -8
1503598831801,-5, -5, -9, -3, -4, -2, -2, -1
1503598831814,-7, -2, -7, -1, -4, -4, -7, 0
1503598831823,2, 3, 2, -3, -1, -2, -3, -2
1503598831830,4, 1, -3, 0, 1, 2, 9, 12
1503598831846,6, 1, 6, 2, 0, 0, 1, 13
1503598831854,8, -5, -10, -2, -2, -3, 0, -4
1503598831861,-1, -4, -2, -3, -3, -1, -3, -9
1503598831874,-2, -6, -3, -4, -2, -1, -1, 0
1503598831882,-2, 2, -3, 1, -3, -2, -4, -7
1503598831897,-5, -1, 0, 0, 0, -1, -1, -6
1503598831905,-5, 2, 8, 1, -1, -2, -9, -13
1503598831926,2, 5, 8, 1, 0, 0, 1, 2
1503598831927,15, -2, -4, -2, -2, -2, 6, 26
1503598831934,-6, 1, 5, 1, -3, -3, -4, -17
1503598831942,-3, -1, -4, -1, -2, 0, 0, -3
1503598831950,0, -2, -3, -3, -19, -6, 3, 11
1503598831966,-7, -5, -2, -2, -2, -1, 0, 0
1503598831972,-5, -3, -3, -5, -5, -3, -4, -3
1503598831980,-11, -3, -3, -2, 2, 1, -3, -10
1503598831995,-5, -1, -3, -2, 2, -4, -4, -5
1503598832003,-4, -3, -3, -3, -2, -1, -6, -13
1503598832010,-2, 1, 3, 1, 4, 2, -2, -3
1503598832026,9, 0, -1, -1, -2, 0, 2, 28
1503598832032,-4, 6, 4, 3, 8, 3, 2, 8
1503598832040,-7, 1, 1, 0, 0, 1, 4, -4
1503598832055,-2, -3, -4, -1, 2, -2, -2, -1
1503598832063,9, 6, 0, 1, -1, 0, 1, 7
1503598832070,2, -2, 0, 0, 0, 0, -3, -2
1503598832086,-1, -6, -1, 1, 16, 3, 2, -5
1503598832092,1, 1, 2, 1, 3, 3, -1, 0
1503598832100,-2, -2, -3, -4, -5, -2, -4, -7
1503598832114,1, -3, -3, -3, 0, -3, -1, 8
1503598832123,-8, 7, 6, 2, -2, -1, 1, -9
1503598832131,5, 10, 15, 5, -1, -2, 1, 7
1503598832145,-3, -6, -6, -3, -1, -4, -3, -4
1503598832155,-1, -5, -8, -2, 1, 0, 1, -3
1503598832161,0, -3, 0, 1, -4, -1, -1, -3
1503598832174,8, 0, -3, -2, -1, 1, 1, 13
1503598832182,-2, 2, -1, -3, -7, -4, -3, -4
1503598832191,-1, -2, -1, -2, 1, 1, 1, -6
1503598832205,3, 1, -3, -1, 0, -1, 0, -6
1503598832212,-4, -2, 1, -1, -1, -1, -2, -6
1503598832226,-6, -3, -4, -2, -1, -3, -3, -3
1503598832235,-4, -4, -5, 0, -1, 0, -2, -12
1503598832243,-2, -7, -6, -2, 0, -2, -2, 1
1503598832250,0, 0, 2, 1, 2, 0, -2, 1
1503598832266,1, 0, 0, -3, 5, 3, 0, 3
1503598832272,3, 1, 1, 4, 21, 7, 0, -5
1503598832281,-2, -2, 2, 1, 2, 0, -2, -1
1503598832296,0, -1, -3, -3, -6, -2, -1, 5
1503598832303,1, 1, 1, 0, -5, 2, 2, 6
1503598832310,-2, -2, 0, -2, -8, -3, -1, -1
1503598832328,1, 2, 1, -2, -5, -2, 5, 3
1503598832332,0, 0, 1, 0, -3, -3, -2, 0
1503598832342,-3, -2, 0, 0, 1, -1, -2, -2
1503598832356,-5, -5, -6, -5, -5, 0, 0, 0
1503598832363,3, 3, 3, 1, -2, -1, -1, -6
1503598832370,4, -1, -1, -1, -2, 0, 2, 5
1503598832385,2, -3, -5, -2, -2, -2, -3, -5
1503598832392,-8, -4, -3, 0, -1, -2, -3, -11
1503598832400,2, 2, 1, -2, -1, 0, 1, 5
1503598832415,-1, 1, 0, -1, -2, -3, 2, -5
1503598832426,13, 2, 0, 1, 0, 0, 3, 12
1503598832437,-2, -2, 0, -2, -4, -2, -7, -6
1503598832445,-8, -3, -2, 0, 1, 0, 1, 4
1503598832452,4, -2, -1, -3, -1, 0, 2, 10
1503598832461,-1, -1, 2, 1, 0, -1, 0, -2
1503598832475,-4, -1, -3, 0, 0, 0, -2, -5
1503598832484,0, 0, 7, 0, -2, -2, -3, -4
1503598832494,-1, -9, -10, -3, -2, 0, 0, -4
1503598832505,-4, -4, -3, -2, 0, -1, -2, -4
1503598832512,-2, -3, -3, -4, 0, -2, 0, 0
1503598832528,-10, -1, 0, 1, -2, -2, -3, -9
1503598832535,-1, 1, -1, -1, -3, -1, -2, 0
1503598832544,0, -3, -4, -5, -18, -7, -2, -5
1503598832558,2, 1, 5, 2, -3, -2, -3, -1
1503598832565,-1, -2, -3, -2, -4, -3, -2, 1
1503598832572,0, 3, 3, -1, 0, 1, 2, 0
1503598832591,-1, 4, 0, -1, 4, 1, -2, 2
1503598832599,0, 0, 2, 1, 3, -1, 0, -1
1503598832603,-2, -5, -10, -3, -1, -1, 0, -2
1503598832617,-3, 1, 5, -2, -5, -5, -6, -5
1503598832627,-1, -2, -3, -2, 3, 2, 0, 0
1503598832633,0, 1, -1, 0, -1, -1, -1, 0
1503598832647,-1, -1, -2, 0, 2, 2, 0, -3
1503598832657,-2, -3, -2, -1, 2, 0, 2, -2
1503598832663,1, -3, 1, 0, 0, 0, -1, 1
1503598832677,-2, -2, -3, -3, -15, -4, -1, 0
1503598832685,0, -1, 0, -3, -1, 0, 0, 0
1503598832693,-1, 1, 1, -2, 1, 1, -2, 0
1503598832707,1, -1, 6, 1, 2, 1, 0, -2
1503598832715,0, -3, -4, -1, 1, 0, 0, 0
1503598832726,1, 13, 9, 0, 2, 2, 1, 1
1503598832737,1, 1, 4, 3, 5, 2, 0, 0
1503598832745,-4, -7, -7, 0, -1, -1, -2, -2
1503598832752,-1, -2, -6, -1, 1, -1, 0, 0
1503598832767,2, 1, 0, 0, -2, -2, -2, -2
1503598832775,-3, -6, -4, -5, 0, 2, -2, -4
1503598832791,3, -1, -3, -3, -3, 0, 0, 7
1503598832792,0, 3, 7, 4, 1, -2, -2, -1
1503598832797,-1, -2, -2, -2, -1, 0, 0, -4
1503598832805,1, -5, -6, -3, -1, -2, -2, 3
1503598832812,-1, -2, -2, 2, 1, -1, -3, -5
1503598832828,-3, -6, -6, 0, 1, 2, 0, -4
1503598832835,-2, 1, 4, 1, -1, 0, 1, 0
1503598832843,-3, 2, -6, 0, 1, 0, 1, -3
1503598832858,2, 1, 1, -1, -1, -1, 0, 6
1503598832866,-5, -6, -4, -5, -2, -1, -1, -2
1503598832872,-2, 4, 4, 1, 2, 0, 1, -5
1503598832887,0, -1, 1, -1, -2, -3, -2, -1
1503598832895,-2, -4, -2, 1, 2, 0, -2, -1
1503598832903,-6, -4, -3, -2, 0, 1, -1, -4
1503598832916,4, 0, 1, 0, -1, -1, 0, 14
1503598832926,1, -1, -1, -1, 0, -1, -1, -3
1503598832933,-5, -3, 0, -3, -1, -2, -6, -8
1503598832947,-5, -4, 0, 1, 0, -3, -4, -3
1503598832948,0, -2, 0, -3, -1, -1, -1, 5
1503598832955,3, 3, 0, 0, 1, 0, 1, 7
1503598832963,0, 4, 1, 0, -1, -1, -2, -1
1503598832976,3, -1, -3, -3, -1, 1, 6, 10
1503598832985,-3, -4, -6, -1, -2, -1, -1, -2
1503598832993,-1, -1, -2, 0, -1, -3, -3, -4
1503598833007,7, 8, 3, 0, 2, -1, 0, 4
1503598833015,-7, -5, -5, -3, -1, -1, -4, -14
1503598833025,-4, 7, 4, 2, 0, 0, -1, -2
1503598833037,-1, 0, 1, 0, 0, -4, -5, -11
1503598833045,-1, -3, -7, -3, -1, 0, 2, 0
1503598833052,-3, -1, 5, 1, -2, 0, -1, -6
1503598833068,8, -5, -2, -1, -4, -1, 1, 4
1503598833075,7, 3, -1, -1, 0, 1, 0, 3
1503598833083,-4, -1, 2, -1, 1, -1, -2, -7
1503598833097,-2, -1, 0, 1, 1, -1, -2, 0
1503598833105,-12, -5, 1, 1, -1, 0, -3, -13
1503598833112,-3, 10, 10, 5, 2, -2, -4, -10
1503598833127,-1, -1, 1, -1, -1, -3, -5, -7
1503598833135,-1, -5, -6, -2, -3, -1, 0, -5
1503598833143,3, -1, 2, -1, -1, 1, 1, 4
1503598833159,3, -3, -5, -5, -3, 0, 1, 15
1503598833166,7, 4, 3, 3, 1, 0, -1, -1
1503598833179,-3, -6, -5, -2, -1, 1, 0, 2
1503598833187,1, 4, 4, 0, 1, 1, 1, 1
1503598833203,1, 3, -1, -1, 0, 1, 1, 2
1503598833204,0, -3, -8, -2, -2, -1, 1, 13
1503598833217,5, -2, -1, 1, 0, -2, 1, 11
1503598833227,-8, 2, 2, -1, -2, -2, -4, -18
1503598833232,-6, -1, -4, -3, -3, -3, -1, -3
1503598833247,-1, -5, -3, -2, 0, -2, 1, 8
1503598833257,1, -7, -6, -2, 0, 2, 2, 1
1503598833264,-1, 1, 2, -1, -1, -3, -6, 1
1503598833277,0, -3, 0, -2, 1, -2, -2, -3
1503598833285,-4, -1, 3, 4, 1, -3, 0, -1
1503598833294,6, -1, -3, -4, -2, 0, 2, 10
1503598833307,-3, 0, 1, 0, -2, 0, 0, 0
1503598833315,-6, -7, -7, -5, -3, 1, -3, -11
1503598833323,3, 3, 0, -1, -2, -3, -3, 2
1503598833337,-10, -3, 1, -1, 1, -1, -2, -7
1503598833345,0, -3, -4, -1, 0, 2, 3, -6
1503598833352,-1, 4, 7, 5, 0, 0, -3, -2
1503598833367,-5, -5, -4, -5, -3, 0, -1, -3
1503598833375,-4, -1, -3, -2, -3, -3, -1, -6
1503598833383,-3, -1, 4, 2, 0, 1, -1, 2
1503598833398,-3, 0, 1, 1, 1, 3, 1, -4
1503598833405,11, 4, 0, -2, 0, -2, 2, 14
1503598833412,2, 3, 5, 5, 0, -3, -2, -4
1503598833432,1, -5, -4, 0, -1, -1, 0, 1
1503598833435,7, 9, 16, 3, -3, 0, -2, 4
1503598833443,2, -1, 1, 0, -2, -3, -1, 1
1503598833444,-2, -4, -6, -2, -1, -1, 0, 2
1503598833456,2, 2, 4, 1, 0, -2, 0, 1
1503598833457,-6, -6, -8, -4, -2, -1, 0, -2
1503598833465,-5, -1, 1, -1, -1, -1, -2, -7
1503598833483,1, 2, -1, 0, -1, -3, -2, 3
1503598833487,0, -3, -4, -3, -2, 0, 2, -2
1503598833495,-1, -1, -2, -2, -2, 0, 0, -3
1503598833496,2, 0, 0, -3, -2, -2, -2, 0
1503598833510,-3, -4, -4, -1, -1, -1, -1, -2
1503598833518,-2, -5, -6, -6, -3, -2, -2, -6
1503598833525,-6, -2, -2, -2, -1, 1, 0, -3
1503598833539,-1, 3, 3, 1, 1, 0, 0, -3
1503598833547,3, 0, 0, 0, 0, 0, 1, 5
1503598833555,2, 6, 6, 3, 0, -2, -1, -1
1503598833570,-1, -5, -6, -2, -1, -1, -1, 1
1503598833576,-1, -6, -4, -4, -1, 2, 0, 1
1503598833585,0, -5, -10, -3, -1, 0, -1, -5
1503598833603,-7, -11, -22, -5, -2, 0, 0, -3
1503598833608,-4, -10, -2, -2, -3, -2, -5, -11
1503598833615,-5, -13, -7, -2, -3, -1, -2, -1
1503598833631,0, 4, -1, -2, -1, -2, -2, 1
1503598833637,-1, -5, -3, -2, 0, -1, 0, 1
1503598833645,2, 7, 9, 4, -1, -1, 0, -2
1503598833664,1, 6, 6, -1, -1, -1, 1, 0
1503598833667,-3, -9, -7, -4, -2, 0, -1, -4
1503598833668,0, -4, -5, -3, 0, -1, -2, 1
1503598833675,3, 5, 2, 1, 0, 0, 0, -1
1503598833690,2, 0, 2, 0, 0, -1, -1, -2
1503598833698,-2, 2, -2, 0, 0, 0, 2, -1
1503598833705,-2, 9, 13, 3, 0, 0, -1, -2
1503598833719,-2, -7, -5, -4, -3, -1, -1, 1
1503598833729,1, -1, 0, 2, -1, -1, -2, 4
1503598833735,1, 3, 1, 0, -2, -1, -2, -1
1503598833750,2, -4, -5, -1, -3, -2, 0, 0
1503598833756,0, -3, -3, -2, 0, -1, 1, -2
1503598833768,-1, 0, -2, 0, 0, -1, 0, -3
1503598833779,-3, 4, 6, 1, 1, -1, -3, -2
1503598833787,1, 5, -6, -2, 2, 0, 0, 1
1503598833797,2, 5, 3, 1, 1, -1, 1, 1
1503598833810,-3, -8, -5, -4, -2, -1, -1, -1
1503598833816,-2, -1, 1, 1, 0, -1, 1, -2
1503598833825,-3, -7, -6, -2, 0, -1, -1, 0
1503598833839,1, 3, 3, 0, 0, 0, 0, 2
1503598833847,1, 2, 4, -1, -2, 1, 0, -3
1503598833855,1, -2, -1, 0, -1, 0, -1, -2
1503598833871,-3, 2, 4, 1, 1, 0, -1, 2
1503598833877,0, 3, 4, 2, 1, 0, -1, -1
1503598833885,-4, -8, -3, -2, -2, -1, -1, -1
1503598833900,-2, 4, 10, 1, -1, -1, 0, -1
1503598833907,-2, 1, -1, -1, -1, -1, -1, -4
1503598833915,0, 2, -4, -2, -1, -1, 0, 0
1503598833931,0, -3, -2, -2, -2, 0, 0, 1
1503598833937,3, 21, 14, 5, 2, 2, 0, 0
1503598833945,-1, -4, -5, -1, -2, -2, -1, -1
1503598833959,-3, -15, -14, -4, -1, -1, -3, -1
1503598833967,2, 10, 9, 3, 0, -4, -1, 0
1503598833975,-4, -9, -9, -4, -4, -2, 1, -2
1503598833990,-1, -1, 1, 0, -1, -1, 2, -2
1503598833997,-1, -5, -3, -2, 0, -1, 0, -1
1503598834005,0, -1, -2, -1, -1, -1, -3, -2
1503598834019,-1, -2, -1, 1, -1, 0, -1, 0
1503598834027,-2, -3, 0, 0, 0, 0, -1, 0
1503598834028,0, 0, -2, -1, -1, -1, -2, 0
1503598834035,0, -3, -4, -3, 0, -1, -1, 0
1503598834050,0, -1, -1, 0, -1, -1, -2, 1
1503598834056,-2, -6, -5, -2, -1, -2, -1, 0
1503598834065,-1, -1, -2, -5, -1, 0, 1, 1
1503598834079,0, -1, 1, -1, 1, -1, -1, -3
1503598834087,3, 14, 12, 4, 1, 1, 1, 0
1503598834095,-2, -5, -4, 0, -1, -1, -2, -1
1503598834110,-2, -5, -4, -2, 0, 0, -1, -4
1503598834116,2, 3, 4, 0, -1, -1, -1, -2
1503598834125,-3, -4, -3, -2, -2, -2, 0, 0
1503598834139,-1, -1, -2, -3, -1, -2, -1, 0
1503598834148,0, -2, -3, 0, -2, 0, -3, 0
1503598834155,0, 0, -1, -1, -1, -2, 0, 1
1503598834170,0, -2, -1, -2, -1, -2, -1, -1
1503598834176,-2, -2, -3, 1, -1, 0, -3, -1
1503598834185,-3, -5, -7, -2, 0, 1, -1, 0
1503598834199,-1, 0, 0, -1, -1, 1, 0, -2
1503598834207,1, -2, -5, -3, -1, 0, 1, -2
1503598834215,1, -2, -1, 2, 1, 1, -1, 1
1503598834233,-2, -5, -4, 0, -1, -3, -2, -4
1503598834236,-2, 2, 1, 0, -2, -2, 1, -1
1503598834237,2, 3, -3, 1, -1, -2, 1, 0
1503598834252,1, -1, 0, -1, 0, -2, 2, 1
1503598834259,-1, -1, 0, -1, -1, 1, 1, 2
1503598834275,-1, -1, 2, 1, -1, -3, -4, -4
1503598834276,-2, -3, 1, -1, -1, -3, -1, 0
1503598834290,0, 1, -1, 2, 0, 1, -1, -1
1503598834301,1, 0, -1, -3, -1, -1, -2, -3
1503598834305,2, 5, 6, 3, 2, 2, 1, 2
1503598834319,-1, -1, -6, -4, -2, 0, -1, -4
1503598834327,-3, -3, 1, 1, -3, 0, 0, -1
1503598834335,-4, -9, -9, -5, -3, -3, -1, -3
1503598834350,0, -1, 0, -3, -13, -4, -1, 1
1503598834357,-2, 2, 9, 1, 2, 1, -1, -1
1503598834367,-1, -10, -9, -5, -4, -4, -8, -5
1503598834368,0, 1, 3, 0, 2, 2, 5, 1
1503598834379,0, 0, -3, 1, -1, -1, -3, -1
1503598834387,0, -1, -5, -1, -1, -1, -3, -1
1503598834402,-2, 0, -1, -2, 0, 1, -2, -3
1503598834410,-1, -1, 3, 1, 3, 1, 0, 0
1503598834416,0, 2, 3, 0, -2, -4, 0, 0
1503598834433,0, 1, -4, -3, 0, -1, -2, 0
1503598834440,1, 1, 1, 2, 0, 1, 3, 2
1503598834447,2, 2, 1, -1, 2, 0, -1, 2
1503598834461,1, 1, 1, 1, 2, 2, 1, 3
1503598834470,-1, -2, -3, -3, -1, 0, -2, -3
1503598834484,1, 0, -3, -1, -2, 0, 0, -1
1503598834492,-3, -1, 2, -3, -2, -2, -3, -6
1503598834502,-1, 6, 11, 2, -1, 0, -1, -1
1503598834508,-1, 0, 3, 2, -1, -2, 1, -1
1503598834522,-4, -2, -4, -2, -1, -2, -3, -1
1503598834531,-1, -3, -3, -1, -2, -4, -6, -2
1503598834537,-1, -3, -2, -2, 0, 0, 5, 2
1503598834559,3, 2, -3, -2, -2, -1, -3, -1
1503598834568,-2, 0, -3, -1, 0, -2, -5, -3
1503598834582,-2, -5, -3, -1, 0, 1, 4, 2
1503598834590,0, -2, 1, -1, -1, -1, -1, -1
1503598834597,-3, -3, 0, -3, -3, -3, 0, -1
1503598834615,1, -2, -3, 0, 1, 0, -2, -3
1503598834619,1, -3, -2, 2, 1, 0, -2, -5
1503598834628,-1, 1, 0, -2, -2, -1, -1, 4
1503598834642,-1, -2, -2, -1, -3, -1, 0, 0
1503598834650,-4, -2, -5, -2, 1, 1, 1, 1
1503598834657,-3, -1, -3, -1, 0, -3, -2, 0
1503598834673,-1, -2, -2, 0, -2, 0, 2, -2
1503598834679,-1, -1, 0, 0, -1, -3, -6, -6
1503598834687,-2, -2, 0, -1, -1, -1, 3, 3
1503598834703,0, -3, -4, -1, -1, -2, -2, 1
1503598834710,-1, -5, -1, -3, 6, -2, -4, -5
1503598834717,1, 0, 0, -2, -4, -4, -5, 0
1503598834734,-1, -1, 0, 1, -2, 4, 0, 3
1503598834739,-3, -3, -1, 0, -1, -2, -1, -1
1503598834747,-1, 3, 0, 0, -2, -4, -6, -6
1503598834769,-1, -3, -2, -1, -3, 1, -2, -4
1503598834770,-1, -1, 1, -1, -1, 0, 0, 2
1503598834785,0, 0, -2, -2, 0, -3, 5, 2
1503598834792,-5, -3, -2, -2, -2, -1, 2, 1
1503598834803,2, 3, -1, -1, 0, 2, 0, -3
1503598834807,2, 2, -2, -1, -2, -2, 0, -2
1503598834823,-3, -1, 1, 1, 1, 1, 2, -3
1503598834830,0, -2, -2, 0, 1, 0, -1, -1
1503598834846,0, -1, 0, -1, 1, 0, -5, 2
1503598834852,1, 0, 0, -2, -2, 1, 5, -1
1503598834860,-2, 0, 0, -1, 0, -1, -2, -2
1503598834875,-1, -2, -2, -1, -7, -4, -2, -1
1503598834883,0, 0, 0, -1, -1, 0, 0, 1
1503598834889,-2, 0, 0, -1, 0, -2, -4, 0
1503598834890,-2, -1, 0, 0, -1, -2, 0, -4
1503598834905,-2, 0, 0, -1, 1, 0, 2, 1
1503598834912,-1, -2, -1, -1, -1, -1, 0, 1
1503598834920,0, 0, -1, -2, 0, -2, -3, -2
1503598834927,0, -2, 0, -1, 0, -1, -7, 2
1503598834945,-2, -1, 0, 0, -2, -3, -1, 4
1503598834950,0, -2, -3, -1, -1, 3, 6, 4
1503598834966,0, -1, -1, -3, -3, -2, -5, -2
1503598834973,1, -2, 0, 1, 0, 0, 1, 1
1503598834980,-1, 0, -2, 0, 1, 1, 0, -2
1503598834987,1, 2, 0, 0, 0, -3, -3, 0
1503598835003,1, -2, -2, 0, 0, -1, -1, 0
1503598835010,-2, -1, 0, 0, -1, -1, -4, -2
1503598835025,-2, -1, 1, 0, -2, -1, 1, -2
1503598835032,1, 0, 1, -1, 2, 2, 4, -1
1503598835042,-1, -2, 0, -1, 2, -2, -1, -8
1503598835047,1, 1, -2, -1, -1, -2, -1, -1
1503598835063,0, 0, 0, -2, -3, -1, -2, 0
1503598835070,-2, -1, -2, -1, 0, -1, -2, -1
1503598835085,2, 2, 1, -2, -1, -1, 1, 0
1503598835092,-4, -5, -1, -1, -2, -3, -7, 0
1503598835102,0, -2, -2, 1, 0, 1, 0, -1
1503598835108,1, 0, -1, -1, 0, -2, -1, -2
1503598835123,-2, -2, -1, -2, 0, 0, -4, -6
1503598835130,2, 0, 0, -1, -1, -1, -2, -5
1503598835147,1, 1, -2, -2, 0, -1, 4, 0
1503598835152,-2, -1, -3, -2, -2, 1, 1, -4
1503598835160,-2, -1, -1, 1, -1, -1, -5, 3
1503598835169,-1, -1, -1, -2, -2, -3, -6, -5
1503598835183,-2, -2, -2, 0, -1, -1, 3, 3
1503598835189,-2, -3, 0, -2, -1, -2, 1, 2
1503598835205,-1, -4, -1, -1, 0, 1, 2, 3
1503598835213,1, 0, 0, 0, 1, -2, -1, -1
1503598835220,-2, 0, 0, -1, -2, -2, 0, 0
1503598835227,-2, 1, -2, -2, -1, -2, -11, 2
1503598835243,2, 0, 1, -1, -1, -3, -2, 1
1503598835250,-1, -1, 1, 0, -1, 3, 4, 2
1503598835265,-3, -1, 0, -1, -2, 0, -3, -5
1503598835272,-2, -2, -2, 0, -1, 2, 4, 1
1503598835281,-2, -1, 0, 0, -1, -1, 5, -1
1503598835287,1, -1, -1, -1, 0, 0, 1, 3
1503598835307,2, 0, -3, -1, 1, 2, 4, 0
1503598835311,0, 0, 0, 0, 0, -1, -1, -1
1503598835325,-2, -1, -2, -2, -2, -4, -4, -1
1503598835332,-1, -1, -2, 1, 2, 2, -2, -8
1503598835341,0, 0, 1, -1, 0, -1, -2, -2
1503598835355,-1, 0, 0, -2, 1, 1, 1, 2
1503598835363,-5, 0, 0, -3, -1, -2, -3, -5
1503598835371,0, 0, 0, -3, -2, -4, -1, -1
1503598835385,1, -1, -1, -1, 1, 2, 0, -1
1503598835392,0, 1, 1, -2, -2, 0, 0, -1
1503598835400,3, 0, 0, 0, 0, -3, 0, 4
1503598835415,-4, -1, -2, -1, -2, 1, 2, -2
1503598835423,0, -2, 1, -2, -1, 0, 1, -1
1503598835430,-3, -2, -2, -1, -1, -2, 1, 1
1503598835445,1, 1, 0, 1, 0, 0, -4, -8
1503598835452,3, 0, -1, -1, -2, 0, -3, 4
1503598835460,-3, 0, -3, 0, -2, -1, -5, -2
1503598835475,-1, -2, -1, 1, -1, -1, 1, -1
1503598835483,1, 0, -1, 0, -1, 2, 0, 4
1503598835489,-1, -2, -2, 0, 0, 0, 2, 3
1503598835505,-2, -3, -1, 0, -2, -1, -2, -8
1503598835519,-2, -2, -3, 1, -1, -2, -4, -5
1503598835521,-2, -2, 1, -1, -1, -3, -2, 3
1503598835535,-1, 1, -1, -3, -1, -3, -2, -2
1503598835543,3, 0, -2, -2, -1, 0, 0, 0
1503598835550,-1, 2, 2, -1, 1, 1, -2, -5
