1503963533736,-4, -3, -1, -3, -3, -2, -1, -2
1503963533745,-9, 2, 1, 2, 2, -2, 0, -7
1503963533759,1, 0, -1, -1, -2, 0, -1, 4
1503963533767,-3, -2, -1, -3, 0, -1, 0, 1
1503963533778,11, 1, 2, 2, -2, -1, 1, 10
1503963533779,0, -2, -1, 1, -1, 0, -1, -1
1503963533790,-4, 1, 0, -1, 1, 0, 1, 1
1503963533796,1, 2, 0, 0, -2, -1, 0, 2
1503963533812,9, 2, -1, 1, -1, -2, 1, 10
1503963533819,-4, 1, 0, -3, -1, 0, 1, 3
1503963533827,1, 0, -1, -1, -1, 2, -2, -3
1503963533834,-1, -3, -2, 0, 1, -2, -3, -8
1503963533850,1, 1, 0, -2, -2, -1, 0, -7
1503963533856,-1, -2, -2, -3, 0, -2, -1, -3
1503963533871,1, 1, 2, 1, -1, 0, -1, 0
1503963533879,2, 1, 1, 0, -2, 0, 2, 6
1503963533887,1, -1, -2, -2, -2, -2, -1, 2
1503963533902,-3, -1, -1, 0, -1, -1, -2, 2
1503963533909,-5, -3, -1, -1, -1, 0, -2, -7
1503963533917,7, 4, 0, 0, 2, 0, 2, -3
1503963533931,0, -1, -2, -1, 0, 0, 0, 1
1503963533939,2, 0, -1, -3, -2, -2, -3, 6
1503963533956,-8, -4, -2, -2, -1, -2, -4, -4
1503963533961,3, -1, 0, 1, 2, -1, 1, 2
1503963533969,1, 0, 0, 1, -2, 0, 1, 2
1503963533977,1, -4, -4, -2, -2, -1, 0, 3
1503963533992,1, -1, 1, 1, -2, -1, 1, -1
1503963534001,1, 3, 1, 0, -2, -1, 0, -2
1503963534007,6, -2, -4, -4, -1, -2, 0, 1
1503963534021,-6, 0, 0, -2, -1, -2, -2, -10
1503963534031,-6, -2, -2, 1, 2, -2, -3, -9
1503963534036,-2, -1, 0, 1, 0, 1, -2, 0
1503963534058,2, 0, 0, -2, -2, 0, 0, 11
1503963534059,-7, 1, -1, 0, 1, -1, -1, -2
1503963534067,0, 1, 1, -3, 0, 0, -2, 0
1503963534082,-1, -2, -2, -2, -1, 0, -1, -1
1503963534090,7, 0, -2, -4, 1, -2, 1, 7
1503963534096,0, 1, 0, 3, 0, 0, 2, 2
1503963534111,-6, -1, -3, 2, -3, -3, -3, -6
1503963534120,10, -1, 1, -3, 0, -1, 0, 5
1503963534128,-5, -5, -1, 0, -1, -2, -1, -9
1503963534141,-8, -5, -3, -1, -2, -2, -1, -7
1503963534151,-1, 3, 1, 0, -1, 0, -2, 0
1503963534157,-1, 3, 0, 2, -1, 0, -1, 3
1503963534171,-4, 0, 1, 1, -1, -2, 0, -1
1503963534179,4, -1, 0, -3, -1, -1, 0, -2
1503963534187,-3, -4, -1, -1, 2, -1, -1, -7
1503963534201,0, -2, -2, -4, 1, -2, -2, -3
1503963534209,-4, 0, -1, -3, -2, -2, 0, 0
1503963534216,2, -1, 1, -1, -1, 0, 1, 7
1503963534231,4, 2, -1, -1, 0, -1, 0, 5
1503963534239,1, 0, 0, 1, -2, 0, 0, 3
1503963534247,-4, -2, 0, -2, -3, -1, -1, -4
1503963534262,-2, -3, -1, -1, 0, -1, -2, -3
1503963534269,-2, -2, -3, 0, 0, -1, -1, -5
1503963534276,-3, -2, -4, -2, -2, -1, -1, -9
1503963534292,1, 1, 1, 0, 0, 1, -1, 5
1503963534299,2, 2, 1, 0, -1, -1, 1, 3
1503963534306,-10, -6, -4, 0, -2, 0, -2, -14
1503963534307,3, 1, 0, 0, -2, 0, 0, 5
1503963534322,1, 0, 0, -1, 0, -1, -1, 2
1503963534329,0, -2, 0, -1, -1, -2, -3, -2
1503963534336,-3, -4, -3, -2, -3, -2, -2, -7
1503963534351,-2, -5, -3, 0, 0, -1, -1, -5
1503963534359,-4, -1, -3, 0, -1, -3, -3, -3
1503963534367,9, 3, 2, 1, -2, 1, -2, 6
1503963534381,-6, -2, -1, 1, 0, -1, 1, 1
1503963534389,1, 2, -1, -1, 0, 0, 2, -1
1503963534396,-1, -5, -1, -3, -1, -1, -2, -4
1503963534411,-10, -3, -3, -1, 1, -3, -1, -11
1503963534419,-3, -1, -1, -1, -2, 0, -1, -4
1503963534427,6, 0, -1, -2, -2, -1, 0, 2
1503963534441,1, 0, 0, 0, 2, 2, 1, 2
1503963534451,4, 1, 2, 2, 2, 0, -1, 1
1503963534456,2, 2, 0, 0, 0, -1, -1, 2
1503963534471,-2, -1, -1, -2, -3, 0, 2, 1
1503963534479,-7, -5, -3, 0, -2, -2, -3, -9
1503963534487,-1, 1, 1, -1, -2, -2, 1, 4
1503963534501,3, 0, 1, -1, 1, -2, 1, 1
1503963534509,0, 0, -2, -1, -1, -1, -1, -3
1503963534518,1, 2, -2, -2, -1, 0, -2, 1
1503963534531,-2, -2, -1, -3, -2, 0, -4, -3
1503963534539,10, 1, 3, 1, -2, -1, 2, 4
1503963534548,-4, -2, -1, 0, -1, 0, -2, -5
1503963534561,3, -1, -1, 1, -1, -1, -1, 5
1503963534569,2, 2, 0, 1, -1, -1, 0, -5
1503963534576,-11, -4, -2, -3, -3, 1, -2, -7
1503963534592,-4, -2, -3, -2, -2, -3, -2, 2
1503963534599,3, -1, -2, 1, -2, -1, 1, 1
1503963534607,2, 0, -2, -2, -2, 0, 0, 0
1503963534621,-2, 0, 0, -1, 1, -3, -3, -2
1503963534629,-1, -3, 0, 0, 1, -1, -1, 0
1503963534637,-2, 0, -1, 0, 1, -1, 0, -2
1503963534652,-4, -2, -2, 1, -1, 0, 0, -2
1503963534659,1, -1, 0, -1, -3, -2, 0, 2
1503963534667,-4, 1, 1, -3, 0, -2, -3, -6
1503963534681,2, 0, 1, -2, 0, 1, -2, 0
1503963534689,-1, -2, -4, -2, -1, -1, -1, 0
1503963534697,0, 2, -1, -1, -1, -1, 1, 0
1503963534711,-4, -1, -1, 1, -2, -1, -1, -1
1503963534720,-3, -3, -3, -1, 0, 0, -3, -3
1503963534727,3, 2, 0, -1, -2, 0, 1, -1
1503963534741,-2, 0, 0, -2, -1, 0, 0, 1
1503963534749,8, 0, 0, -1, 2, 0, -1, 12
1503963534756,-1, -2, -3, -2, -2, -2, -2, -6
1503963534771,1, -1, 2, 0, -1, 0, 1, 5
1503963534779,3, 2, 0, -1, -1, -1, -1, -2
1503963534787,-2, -1, 0, 1, -1, -1, -2, -7
1503963534801,5, 2, 1, 0, -1, 0, -1, 3
1503963534809,3, -1, -1, 0, -1, -1, 1, 4
1503963534824,-3, -1, -1, 0, 0, -1, -2, -1
1503963534832,-2, 0, -1, 1, -1, -2, -2, -2
1503963534839,-2, -2, 0, -1, -1, 0, -1, 2
1503963534854,-3, 0, -1, -2, 0, 0, 0, -1
1503963534861,-7, 0, 0, 0, -3, 0, -3, -4
1503963534869,5, 0, 0, 0, -3, 1, -1, 2
1503963534884,1, -1, 0, -1, 0, 0, -1, 1
1503963534892,0, 0, -3, 0, 1, -2, -1, -4
1503963534898,-1, 0, -1, -1, 1, -2, 0, -1
1503963534914,0, -1, -2, -1, 0, 0, 1, -2
1503963534921,-2, -1, -1, 0, -1, 0, -1, -1
1503963534929,-4, -2, 0, 0, -1, 0, -2, -3
1503963534943,1, -3, 0, -1, -2, -1, -1, 4
1503963534944,2, 0, -2, -1, -2, -2, -3, -4
1503963534951,3, 1, 2, -2, 0, -1, -1, -1
1503963534952,2, -3, -2, -1, 1, 0, -1, 2
1503963534959,2, 0, 0, 0, 0, -1, -1, 1
1503963534973,-4, -2, 0, -2, -1, -2, 0, 0
1503963534981,1, 0, 1, 1, -1, 1, 2, 1
1503963534989,-3, 0, -2, -2, -2, -2, -1, -2
1503963535003,8, 2, -1, 0, -1, -1, 0, 0
1503963535004,-6, -2, -2, -1, -3, -1, -1, -5
1503963535012,0, -1, -1, -3, -2, 0, 0, -3
1503963535019,1, -1, -1, 0, -1, -1, -1, 1
1503963535040,1, -1, -1, -2, 0, 0, -1, 1
1503963535041,0, -1, -2, -1, -1, -1, -2, 0
1503963535049,1, 0, 0, -1, 0, -1, 0, 0
1503963535064,-2, -5, -1, -3, -1, -1, 0, -2
1503963535071,-1, 1, -1, 0, 0, -1, -1, -2
1503963535079,0, -1, -3, 1, -1, -2, -2, -4
1503963535094,-5, -1, 0, -1, -4, -1, 0, -1
1503963535102,-7, -2, -2, -2, -2, -4, -2, -7
1503963535109,0, -1, -1, -2, -1, 0, -2, -1
1503963535124,4, 0, 1, -2, -1, 0, 1, 8
1503963535132,-8, -2, 0, -1, 0, 0, -1, -3
1503963535139,0, -2, 0, -2, -2, 0, 0, 1
1503963535153,3, 0, 1, -1, -1, -1, -2, -2
1503963535161,0, -2, 0, -1, -1, 0, -1, -2
1503963535169,-7, 0, -2, -3, -1, 2, 0, 5
1503963535183,-3, 3, -2, 0, 0, -1, 1, -1
1503963535191,-2, -2, -1, -2, 1, -2, 0, -1
1503963535199,0, -2, -1, 0, 1, -1, -2, -2
1503963535214,3, 0, -1, 0, -3, -1, 0, -1
1503963535223,-4, 2, 1, 1, 1, 0, 1, 0
1503963535229,1, 0, 0, 0, -2, -2, -1, -1
1503963535244,-4, 0, 1, 0, -1, -1, -1, -5
1503963535251,3, 1, -1, -1, 1, 0, 1, 3
1503963535259,2, -1, -4, 0, -2, -1, -2, 2
1503963535273,-1, -3, -1, -1, 1, 0, -2, -4
1503963535281,4, -1, 2, -2, 0, 0, 1, 1
1503963535290,-2, 0, -1, 1, -2, 0, -3, -1
1503963535304,4, 0, 0, -1, -2, -4, 0, 2
1503963535311,1, 0, 0, -2, 1, 0, -1, 3
1503963535319,-7, -4, -2, -2, -1, 0, -1, 0
1503963535341,1, -1, 0, 0, -1, -1, 0, -3
1503963535349,-1, -1, -2, 0, -2, -2, 0, -3
1503963535363,-10, -6, -5, -3, 0, 0, -5, -9
1503963535372,2, 0, 0, 0, 1, -1, 0, -1
1503963535378,3, 1, 1, 1, -1, 0, 0, 1
1503963535394,-4, -3, -5, 0, -1, -3, -2, -6
1503963535401,-4, -2, 0, 0, 1, 0, -1, 2
1503963535409,0, 2, 2, -1, -1, 0, 0, 1
1503963535425,-5, -3, -2, -3, -3, -1, 1, -3
1503963535431,-8, -3, -2, -2, -2, -3, -1, -5
1503963535439,3, 1, -1, -2, -1, 0, 0, 5
1503963535454,-3, -1, -1, -1, 0, -2, -2, 0
1503963535461,3, 1, 1, 1, -1, -1, 0, -2
1503963535472,7, 3, 0, 0, -1, -1, 1, 4
1503963535484,-4, -3, -2, -1, -1, 0, -4, 0
1503963535493,4, -2, 0, -2, -1, 0, -2, 2
1503963535500,-6, -3, -4, -2, -2, 0, -1, -5
1503963535514,-1, -1, -3, 0, 1, 0, 1, 3
1503963535521,7, 2, 2, -2, -1, -2, 0, 1
1503963535530,5, -1, -1, 1, -1, 0, 1, -1
1503963535544,1, -6, -4, -2, 1, 0, 0, -1
1503963535551,2, 0, -1, -1, 0, 1, -1, 1
1503963535559,4, 2, 0, 0, -1, -1, 0, 6
1503963535573,-4, -3, -2, -1, -1, -2, -3, -3
1503963535581,-2, 2, 1, 1, 0, 1, 1, 1
1503963535589,-1, -1, 1, -1, -2, -1, -1, -2
1503963535604,0, 1, 0, -1, 0, -2, -1, -2
1503963535611,-3, -1, -1, 0, -2, -2, 1, 0
1503963535618,-3, 2, -3, -1, -1, -1, -1, -1
1503963535619,3, -2, -4, -2, -1, -1, 0, 0
1503963535634,2, 0, 0, -1, 1, -1, -1, -2
1503963535641,2, 3, 1, 2, -1, 0, -2, -4
1503963535649,-2, 3, 0, -1, 0, -1, -2, 0
1503963535664,-7, -6, -3, -2, 0, -2, -1, -10
1503963535671,2, -2, -1, -1, -2, -2, -1, -2
1503963535678,0, -1, 2, -2, -1, -3, -1, -1
1503963535694,-3, -2, -1, -1, -1, 0, -2, 1
1503963535702,5, 4, 0, -3, -1, 1, 1, 2
1503963535709,3, 0, -1, -2, 0, 1, 0, -3
1503963535723,1, -1, 0, 1, -1, -2, -1, 0
1503963535732,1, 1, -1, -2, -3, -3, -4, -4
1503963535738,2, 0, 0, -2, -2, -1, -1, 3
1503963535753,-2, -2, -1, -1, 0, -2, 0, -3
1503963535761,-5, -3, -3, -1, 0, -3, -5, -5
1503963535776,-2, 0, 0, -2, -1, 0, -2, 0
1503963535784,-2, -3, 0, 0, -2, 1, 1, 2
1503963535794,0, 0, 0, -1, 0, -1, 0, 6
1503963535806,3, 2, -1, 0, 0, -2, 0, 1
1503963535814,-2, -1, 0, -1, -1, -1, -1, 0
1503963535821,0, 4, 0, 2, -1, 1, 0, -1
1503963535837,5, -1, -2, 0, -3, 1, -2, -2
1503963535844,1, -1, 0, 1, -1, 0, -1, 2
1503963535852,-3, -2, -1, -2, 0, 0, -1, 1
1503963535868,-6, -1, -2, 0, -1, -2, 0, -3
1503963535874,-10, -4, -2, -1, -2, -1, 0, -3
1503963535881,1, 1, 1, -2, -1, -1, -1, 1
1503963535896,0, -1, -2, 0, -2, 0, -2, -3
1503963535904,0, -3, -1, -1, -1, -1, 0, -2
1503963535912,-1, 0, -1, 0, 2, -1, -1, 0
1503963535925,1, 0, 0, 1, -3, 2, -1, 4
1503963535934,-2, 1, 0, -1, 0, -1, -1, 3
1503963535941,-3, -1, 0, -2, 0, -1, -1, -4
1503963535956,-5, -3, -3, 0, -1, 0, -2, -9
1503963535964,4, 0, 1, 1, -1, 0, -1, 3
1503963535971,0, -2, -1, -2, 0, -1, 1, -4
1503963535985,-1, -2, -3, -2, -2, -3, -1, -1
1503963535997,-4, -2, 0, 1, -2, -2, 2, 5
1503963536001,1, -2, -1, 0, 0, -1, -2, 1
1503963536016,5, 1, -1, 0, -3, -1, -1, 2
1503963536024,4, 2, -2, -1, 1, 0, 0, -2
1503963536032,-2, -2, -4, -2, 0, 0, -1, -5
1503963536045,-4, -3, -3, -1, 0, 0, 0, -4
1503963536053,3, 2, 1, 1, -3, 2, 0, 3
1503963536062,-3, 1, 1, 2, 0, -1, -1, -6
1503963536076,1, 1, 3, 0, 1, 0, -1, 1
1503963536083,-1, 1, 1, -2, 1, -2, -1, 3
1503963536091,-7, 0, -2, -2, -1, -2, -4, -10
1503963536105,1, -5, -4, -1, -1, 0, -1, -1
1503963536114,7, 2, -2, -1, 0, -1, -1, 1
1503963536121,-6, -3, -1, -1, -2, -2, -2, -5
1503963536136,3, -1, 0, 1, -2, 0, 1, 0
1503963536144,-1, -1, 2, -1, 0, -1, -1, -1
1503963536151,-2, -2, 0, -1, 0, -2, -1, 2
1503963536167,-8, -2, -2, -1, -3, -3, -3, -5
1503963536173,1, -2, -1, -1, 0, 0, 0, 4
1503963536181,8, 1, -1, 0, -2, -2, 0, 6
1503963536196,-11, -2, 0, 0, -1, -1, 1, -12
1503963536204,2, 3, -2, -1, 0, 0, -1, 0
1503963536211,5, -1, 0, -1, 0, -1, 0, 4
1503963536225,-4, -1, 1, 0, 0, 1, 0, -2
1503963536234,1, 2, 0, -3, -1, -1, -3, 5
1503963536241,-7, -5, -4, -1, -1, -2, -2, -9
1503963536256,6, 0, -3, 0, -1, 0, -1, 4
1503963536264,6, 4, 1, -2, -3, 1, -1, -2
1503963536272,-4, -2, -3, -1, 1, -1, -3, -12
1503963536285,0, -1, 1, -1, -1, 1, 0, -2
1503963536294,-5, -2, 1, 0, -1, 0, -2, -2
1503963536301,-4, -3, 0, 2, -1, -1, 0, -1
1503963536316,3, 0, 0, 1, 0, -1, 0, 1
1503963536323,0, 2, -1, 0, -1, 0, 2, 6
1503963536332,1, 0, 1, 0, -2, -1, -1, 1
1503963536345,5, 0, -2, -1, 0, -2, 1, 8
1503963536353,-1, 1, -1, -1, 1, -1, -1, -1
1503963536361,-2, -1, 2, 0, -1, -1, -2, 1
1503963536376,-3, -2, -2, -1, -2, -1, 1, 3
1503963536383,3, -2, -2, -1, -1, -1, -3, -1
1503963536391,1, 0, -2, -2, -1, -1, -2, -5
1503963536406,-7, -1, -3, -3, -1, -2, -2, -3
1503963536413,-3, -2, -2, -2, -2, -1, -2, -6
1503963536421,-5, -1, -1, -2, 0, -1, -1, -9
1503963536436,0, -1, -4, -2, 0, -2, 0, 1
1503963536443,4, 0, 2, 1, -1, 0, 0, 2
1503963536452,-4, -1, 0, -1, 0, -1, -1, -3
1503963536465,-11, -6, -5, -2, 0, -2, -4, -15
1503963536474,2, 1, -1, -1, -1, 0, 1, 0
1503963536481,-2, -5, -1, 0, -1, 0, 0, -4
1503963536497,-4, -5, -1, 0, -1, 0, -2, 0
1503963536503,0, 1, 0, -1, -2, -2, 0, -2
1503963536511,4, 2, -2, 2, 0, -2, 0, 2
1503963536525,6, 4, 1, 3, 3, 3, 1, 10
1503963536534,-8, -1, -1, -2, 2, -1, -1, -3
1503963536541,-1, -1, -1, -2, 0, 0, 0, -3
1503963536556,7, -1, -3, 0, -2, 0, 0, -1
1503963536564,0, 2, 2, -1, -1, -2, -1, 5
1503963536571,-1, -1, 0, 0, -2, 0, 0, 4
1503963536586,0, -1, -1, 0, 0, -1, 0, 2
1503963536593,2, 0, 1, -1, 1, 0, 0, 1
1503963536601,5, 3, -2, 0, -1, 1, -1, 4
1503963536623,-7, 0, 0, -2, -1, -3, -3, -12
1503963536624,5, 1, 2, -1, -1, -1, -1, -1
1503963536633,4, 0, -4, -1, -3, 0, -2, -7
1503963536645,1, -1, 0, -1, -1, -1, -1, 1
1503963536653,-5, -3, -1, -3, 0, -2, 0, -6
1503963536661,2, -3, -4, -1, 1, -2, -2, -1
1503963536676,0, 1, 0, 0, -2, 0, -1, 2
1503963536684,-4, -1, -1, -1, -2, 1, -1, -3
1503963536700,-3, -1, 0, -1, -1, -1, 0, 8
1503963536706,-2, -2, -1, 0, -2, -3, 0, -2
1503963536721,-2, -1, 0, -4, 0, -2, -1, -2
1503963536728,-2, -1, -1, -3, -1, 0, 1, -3
1503963536736,4, 2, 0, 2, 0, -1, 1, 3
1503963536745,-7, -1, -1, -1, -3, -1, 0, 1
1503963536760,0, 0, -1, 1, -1, 0, -2, -5
1503963536771,-1, 0, 1, -1, 1, 0, 0, 2
1503963536780,5, 0, 0, 1, 0, 0, 0, 8
1503963536788,0, 0, -2, 0, 0, 0, -2, -2
1503963536796,-1, -4, 0, 0, 0, 0, 1, 4
1503963536807,2, 1, 0, 1, -2, -2, -1, -4
1503963536818,0, 1, -2, 0, 0, 0, -2, -3
1503963536825,-5, -2, -3, -1, -2, -1, 0, -5
1503963536834,0, -1, 0, -3, -3, -1, -1, -2
1503963536849,3, -1, 0, -1, -1, 1, -2, 0
1503963536861,1, -3, 1, -1, 1, 2, -2, 1
1503963536863,-3, 0, -2, 0, -1, 0, -1, -6
1503963536878,-2, -1, -1, 0, 0, 1, -3, -1
1503963536885,-2, -5, -3, -1, 0, -4, 0, 2
1503963536894,1, 2, -3, 0, -1, 0, 2, 7
1503963536909,-7, -4, 0, -2, -1, -2, -1, -2
1503963536916,-1, -1, 0, 0, 0, -1, -1, 0
1503963536923,4, 4, 0, -1, 1, 0, -1, 4
1503963536938,-1, 1, -1, 1, -1, 0, -2, 0
1503963536945,2, 0, 1, 0, 0, 0, -1, 2
1503963536953,0, -1, -2, -1, -2, -2, -1, -4
1503963536970,9, -2, 0, 0, -1, 0, 0, 3
1503963536976,-10, -2, 1, -2, -1, -3, -1, -5
1503963536984,-1, 1, 0, 2, -1, -1, -2, 0
1503963536998,-2, 0, -2, -1, -2, -1, -1, -3
1503963537006,8, 1, -1, 0, 0, 1, 0, 13
1503963537014,-1, -3, -2, -1, -1, -2, -1, -4
1503963537028,-3, -1, -2, -1, 0, -1, -1, -4
1503963537037,6, -1, -1, 1, 0, 1, 1, 1
1503963537044,-4, 1, 1, -3, -1, 1, -1, -5
1503963537063,-9, -1, -1, -1, -1, -2, -2, -7
1503963537065,-3, 0, 0, 0, 0, -3, -1, -4
1503963537074,-5, -5, -3, -3, -1, -2, -5, -5
1503963537088,-1, -4, -5, -3, -3, 0, -3, -19
1503963537096,2, 0, 2, -1, -1, 1, 0, 1
1503963537104,-3, -1, -1, -3, 0, 0, -1, 3
1503963537118,0, -4, -3, -1, -2, -2, -1, -4
1503963537125,2, 2, 0, -1, -3, -2, -1, 1
1503963537133,-3, -3, -1, -2, 0, 0, -1, -1
1503963537148,-2, -1, -4, 0, 0, -1, 0, 1
1503963537156,-3, 0, 0, -1, -1, -1, -2, -9
1503963537163,-1, -1, -1, 0, -1, -1, -2, -1
1503963537178,-3, -2, -3, -3, -3, -2, -2, -3
1503963537179,3, 3, 1, 1, 1, -1, 1, 4
1503963537185,-3, 0, -1, 2, 1, -1, 0, -2
1503963537193,3, -2, 0, 1, -4, 0, 0, 4
1503963537208,1, -4, 1, 0, -3, 0, -1, 1
1503963537216,6, 2, -2, 0, 0, -1, 1, 4
1503963537223,1, -3, -3, -4, -1, -1, -1, -2
1503963537239,0, 1, 0, -2, 1, -1, -1, 4
1503963537246,1, 2, 3, -2, 1, -1, 1, 2
1503963537253,0, -2, 0, 0, 1, 0, -1, 0
1503963537268,0, 0, -1, -2, -3, -1, 0, 0
1503963537276,3, 4, 1, 2, -1, -1, -2, 3
1503963537283,-5, -1, 0, -2, -1, -1, -1, -6
1503963537298,5, -1, -2, -1, 0, -1, -1, -2
1503963537305,1, -1, 0, 1, 2, 0, -2, -1
1503963537313,-3, -3, -3, 0, -2, -2, -2, -3
1503963537328,-2, -2, 0, -1, -1, -1, -1, -1
1503963537338,0, -1, -1, -2, -1, 0, 0, -2
1503963537343,-1, -3, -2, 0, 0, 0, -1, 3
1503963537344,0, 2, -1, -2, -2, 1, -2, 2
1503963537358,-4, -3, -3, -2, 0, -2, -2, 0
1503963537365,-6, -1, -1, 0, 1, -2, -2, -5
1503963537374,1, 1, 0, 0, -2, -1, 0, -1
1503963537388,-1, -3, -2, 0, -3, -1, 1, -3
1503963537396,1, -2, 0, -2, 0, -2, -1, 6
1503963537405,-3, 0, 0, -2, 0, 0, -1, -3
1503963537418,2, 0, 0, 0, -1, -2, -1, -2
1503963537425,0, 1, -2, 1, 1, -2, -2, 3
1503963537434,-3, -2, -2, 0, -3, 0, -1, -2
1503963537448,-6, -4, -3, 2, -2, -1, -1, -3
1503963537456,1, -1, -1, -1, -2, 3, 0, 1
1503963537463,6, 4, 3, -1, -1, 0, 1, 5
1503963537479,-1, 1, 1, -2, 0, -1, -1, -3
1503963537485,-2, -2, -3, -1, 0, -2, 0, 2
1503963537493,0, 0, 1, 2, -1, -1, -1, 6
1503963537508,-3, -4, -2, 0, 0, -2, 0, 2
1503963537516,-5, -3, 0, -2, 0, -1, 1, -4
1503963537523,1, -1, -1, -1, 0, 0, -1, -1
1503963537539,-4, -3, -1, -2, -1, 1, -1, -7
1503963537546,-6, -2, -1, -1, -2, 0, -3, -6
1503963537553,0, 2, 0, 0, -1, -2, -1, 2
1503963537568,1, -1, 0, 2, -1, -1, 1, -1
1503963537576,-3, 0, -3, 0, 1, 0, -1, -1
1503963537583,4, -1, -1, -2, 0, 0, -2, 2
1503963537598,3, 2, -2, 0, 0, 0, -1, 4
1503963537606,6, 1, 0, 0, -2, 0, 0, 4
1503963537621,3, -2, -1, 0, -2, -2, -2, 1
1503963537628,-2, 0, -1, -1, -1, -1, -1, -4
1503963537636,-5, -2, 0, -1, -1, -1, -2, -6
1503963537650,0, 0, 0, -1, 0, 0, -2, 2
1503963537658,1, 1, 1, 1, 0, 0, 0, -3
1503963537665,4, 0, -2, 1, 0, -1, 0, 3
1503963537682,4, -1, 0, -1, -1, -3, -1, -2
1503963537688,0, -2, 0, 0, -1, 0, -1, 1
1503963537696,1, 0, -2, -2, -2, -1, -1, 1
1503963537710,0, -1, -3, -3, 0, 0, 0, -2
1503963537718,-7, -1, -1, -3, -2, -2, -2, -4
1503963537725,-5, -1, 2, -1, -2, -2, -1, -6
1503963537741,-2, -4, -3, 0, -1, -2, -2, -4
1503963537749,0, -2, 0, -1, -1, -1, -2, 1
1503963537756,-2, 0, 0, 1, -2, -1, -2, -1
1503963537770,-2, -2, -1, -2, -1, -1, 0, -1
1503963537779,3, 0, -1, 1, 1, 2, 2, 2
1503963537785,1, -1, 0, -2, -1, 0, 0, 1
1503963537801,-5, -1, 1, -2, -2, 0, -2, -9
1503963537808,-2, -1, 0, 1, -1, -2, -1, 0
1503963537817,2, -1, 0, -1, 1, 0, 0, 8
1503963537830,0, 2, 0, 0, -2, -1, -3, -1
1503963537838,-6, -2, 0, -2, -1, -2, 0, -3
1503963537845,3, 0, 1, -2, 0, 0, -1, 3
1503963537861,-4, -2, -3, -2, -2, -2, -4, -5
1503963537868,-7, -2, -1, 1, 0, -4, -2, -12
1503963537876,3, -2, 1, -2, 1, 0, -1, -2
1503963537890,3, -1, -1, 1, 0, -2, 1, 5
1503963537898,-2, 2, 0, -1, -2, 0, 1, 0
1503963537913,3, 1, -1, 1, -2, 1, -1, -1
1503963537921,0, 1, -2, 1, 0, 0, -2, -1
1503963537936,-1, -1, 0, -1, 0, 1, -1, -3
1503963537937,2, -3, -1, 0, -1, 0, -1, 2
1503963537952,-1, 0, -2, -1, 0, 0, 0, -1
1503963537958,3, 1, 1, -2, 0, -1, 0, 2
1503963537965,-4, -4, -2, -1, 0, -1, 0, -5
1503963537981,3, -2, -1, 0, 1, -2, 0, 2
1503963537988,5, 2, 3, -2, 0, 0, 0, 8
1503963537996,-2, -2, -2, -2, -1, 0, -3, -3
1503963538010,1, 0, -2, -1, -2, 1, 2, 0
1503963538019,-1, -3, -3, 0, -1, -4, -1, -3
1503963538034,0, -1, -1, -1, -2, -1, -2, 0
1503963538043,1, 1, 0, -1, 0, -2, 0, -3
1503963538049,3, 1, 0, 2, -2, -2, -2, 0
1503963538056,1, -1, -1, 0, -1, -1, -2, 0
1503963538071,-2, 0, -2, -2, 1, -1, -1, -1
1503963538079,-2, 0, -1, 0, -1, -2, 1, -3
1503963538094,-2, -1, -4, -2, -2, -2, 0, 2
1503963538101,-6, -2, 2, 0, -2, 1, -1, -6
1503963538110,0, -1, 1, 0, -1, 0, -1, 2
1503963538116,0, 2, 0, 0, -3, 1, 0, 2
1503963538131,-7, -1, -1, -1, 1, 0, -2, -4
1503963538139,-8, -6, -2, -1, 1, -1, -1, -3
1503963538154,2, -3, -2, -2, -2, -2, -2, 0
1503963538161,-4, -3, -2, -3, 0, -1, 0, -3
1503963538169,-6, -1, -2, -2, 0, 1, -3, -7
1503963538177,4, 1, -2, -1, -3, 0, 0, 5
1503963538191,-2, -4, -1, -2, -2, -2, -2, -6
1503963538198,-1, 1, -2, -2, -1, -1, 0, 1
1503963538214,-1, -3, -2, 2, -1, -1, 1, 3
1503963538221,0, 0, 0, -1, -1, -1, -2, -5
1503963538229,-4, -3, -2, -1, -2, -1, -3, -5
1503963538236,-1, -2, -1, 1, -2, 0, -1, 3
1503963538251,0, -1, 0, -3, -2, -1, -3, -8
1503963538258,-2, -1, 0, -1, -1, -1, -2, -4
1503963538274,5, 3, 2, 1, 0, 0, 2, 8
1503963538281,3, 1, 0, 0, 0, 0, -1, 3
1503963538289,-1, -1, -2, -4, 0, -2, -1, -2
1503963538296,1, 1, 1, -1, -1, -1, 1, 4
1503963538311,-1, 1, -1, -1, 1, 0, 0, -4
1503963538318,7, -1, 0, -1, 1, -1, 0, 7
1503963538334,1, 1, 1, 0, -1, 0, -1, 3
1503963538341,1, 0, 1, 1, -2, -1, -1, -3
1503963538349,-5, -3, -3, 0, -1, -3, -2, -5
1503963538356,-4, -1, -1, 0, 0, 1, 0, -3
1503963538371,-2, -3, 0, -1, -1, 3, 0, 2
1503963538379,1, 0, -1, -1, 2, -2, -1, -1
1503963538394,4, 1, -2, -1, -2, -1, -1, 4
1503963538401,-2, -2, -2, -2, -1, -2, -1, 1
1503963538409,4, 0, 0, 1, 0, -1, 0, 1
1503963538416,-2, -2, -1, 0, 0, -2, -2, -2
1503963538431,-2, -2, -1, -2, -1, -2, -1, 1
1503963538439,2, -2, -1, -1, -3, 2, 0, 2
1503963538454,2, 2, 3, 1, 1, 0, 1, 4
1503963538461,-3, -3, -2, 0, 0, 1, 0, -4
1503963538469,-4, 0, 0, -1, -3, -1, -2, -5
1503963538476,-3, -1, -2, -1, 0, -1, 0, -2
1503963538491,0, 0, -1, 1, 2, 1, 0, 2
1503963538492,-4, -3, -5, -1, 0, -1, -2, 0
1503963538498,0, 0, -1, -1, -2, -4, -2, -6
1503963538515,-3, 0, 0, 0, 0, -3, 0, 2
1503963538521,-3, -1, -2, 0, -1, 0, 1, 2
1503963538529,-8, -4, -3, -2, -1, -3, -5, -6
1503963538536,0, 2, 1, -1, 1, -1, 0, -1
1503963538553,0, -1, -2, -1, -2, -2, 2, -4
1503963538558,-1, 0, -1, -1, -3, 1, -2, -1
1503963538574,0, -2, 0, 0, 1, 1, -1, 1
1503963538582,6, -1, 1, -2, -3, -1, -1, 0
1503963538589,1, 1, 0, 0, -1, 0, 0, -3
1503963538603,-2, 1, -1, 1, 3, 0, 0, -1
1503963538615,2, 2, 0, -1, -1, 0, -1, -1
1503963538618,2, -1, -1, 0, -2, 0, -1, 0
1503963538634,3, 0, 0, 1, 1, 0, -1, 5
1503963538641,3, 0, -1, -1, -1, -1, -2, 7
1503963538651,0, 1, -1, -1, -2, 0, 0, 3
1503963538663,-3, -2, -2, -3, -2, -3, -1, -1
1503963538671,-1, -2, -1, 0, -1, 0, 0, 1
1503963538681,-7, -3, -1, -1, -2, -2, 0, -3
1503963538694,-2, -1, -2, 0, -2, -1, -2, -10
1503963538701,-1, -1, -2, -1, -1, 0, -1, -1
1503963538709,-1, 0, 0, -2, 1, -2, -4, 2
1503963538724,-2, 1, 1, -2, 1, 0, -4, -5
1503963538731,4, -3, 0, -2, -1, 0, -1, -2
1503963538739,-10, -2, -1, -1, -2, -1, -2, -7
1503963538754,-6, -2, -2, -1, -1, -3, 0, -5
1503963538761,1, 0, 1, -1, 0, -1, 1, -3
1503963538769,-2, -2, 0, -1, -1, 0, 0, -5
1503963538784,3, 0, -1, 0, 0, 0, 0, 1
1503963538791,2, 0, 0, 1, 0, -1, 0, 4
1503963538798,3, -2, -2, -3, 0, -1, -1, -3
1503963538816,-4, 3, 0, 1, -2, 1, 2, 4
1503963538821,-2, -2, -2, -1, -2, 1, 0, -2
1503963538829,-2, -2, 0, -1, 1, -2, -2, 2
1503963538843,0, -2, -2, -1, -1, -2, -1, -4
1503963538852,3, 2, 0, -1, -2, 0, 0, 6
1503963538858,-12, -4, -4, -1, -3, -2, -2, -7
1503963538874,4, 1, 1, 0, 0, -2, 1, 6
1503963538882,1, -2, 0, 0, 0, 0, 1, 2
1503963538889,1, -2, -1, 1, 0, -2, -4, -1
1503963538903,-1, 1, -1, 3, 0, -2, -2, 5
1503963538912,2, 0, -1, -2, -1, -1, -1, -6
1503963538918,-2, -1, -2, -1, 0, -3, -1, -4
1503963538934,-1, 1, -2, -1, -2, -2, -2, -2
1503963538941,2, 1, 2, 0, -1, 3, 0, 2
1503963538950,-1, 0, -1, -1, 0, -1, 1, -2
1503963538963,3, 1, 1, -1, 0, 0, 1, 12
1503963538971,-5, -2, -3, -3, -2, -3, -3, -10
1503963538979,4, 3, 0, 1, -1, -3, 1, 0
1503963538994,-5, -3, -2, -3, 0, 0, -1, -8
1503963539001,-2, -1, -1, -2, -1, 1, -3, -3
1503963539009,-1, -3, -1, -3, -1, -1, 0, -4
1503963539024,2, -1, 2, -1, -2, -1, -2, -3
1503963539032,4, 4, 1, 1, -1, 0, 3, 2
1503963539038,-3, -2, -1, -1, -1, -1, -2, -3
1503963539054,4, -2, -1, 1, -2, 1, 0, 6
1503963539061,-5, -2, -2, -2, -2, 0, -2, -1
1503963539069,-3, -3, 0, -1, 0, -1, 0, 0
1503963539084,-7, -2, -1, 0, 1, -3, -2, -7
1503963539092,-2, 1, 3, 0, 0, 2, 1, 1
1503963539098,1, 0, 0, -1, -2, -1, 1, -1
1503963539114,0, -2, -3, -1, -1, -1, -2, -6
1503963539121,5, 0, -1, -1, 0, 0, -1, -1
1503963539129,3, 0, 1, 0, 0, 1, 1, 3
1503963539143,0, -2, -1, -2, 0, 0, -1, 3
1503963539153,0, 0, -3, -2, -3, -1, -3, -3
1503963539159,-1, 0, -2, -1, -1, -1, 0, -3
1503963539174,-8, -4, -1, -1, 0, -2, 0, -5
1503963539186,2, -2, 0, -2, 0, -2, -2, -1
1503963539196,0, -1, -1, 0, 0, -2, -2, 2
1503963539203,-3, 0, 0, 0, 2, 0, 1, 4
1503963539219,-6, -1, 1, -2, -1, -3, -4, -5
1503963539220,-1, -2, -3, -2, -2, -1, -1, -1
1503963539234,-3, -1, 0, 0, 0, 1, 0, -4
1503963539241,-5, -3, -2, -1, -4, 0, 0, -10
1503963539251,2, 0, -3, 0, -1, -4, -1, 0
1503963539264,5, 3, 0, -1, -2, 0, -3, 6
1503963539271,-1, -7, -2, 0, 1, 0, -2, -1
1503963539279,0, -2, 1, 1, 0, 0, -18, -1
1503963539295,6, -10, -2, 0, -3, -2, 3, 8
1503963539301,3, -3, 2, 0, -1, -2, -7, 4
1503963539309,-2, -5, 0, 1, 2, 3, 3, -1
1503963539324,1, 2, -2, 0, 0, 1, 6, 1
1503963539331,-2, 6, -2, -2, -2, -2, 0, -1
1503963539338,-2, 1, -1, 1, 0, -2, 5, 0
1503963539354,8, 3, 0, 0, 1, -1, -9, -1
1503963539361,4, -10, -4, -1, 0, 1, 6, 9
1503963539369,-1, 1, 0, 0, 0, -1, 1, -4
1503963539386,5, 5, 1, 2, 0, 0, 5, 5
1503963539398,4, 0, -3, -1, 0, 0, -2, 1
1503963539400,-8, 0, -1, -2, -1, -2, -2, -3
1503963539414,-6, 3, 0, -1, -1, 0, -2, -8
1503963539421,-1, 0, 1, -1, 1, -1, 0, -5
1503963539430,-2, -1, -2, -1, 1, -1, 1, 0
1503963539444,-3, -1, -1, -1, 0, 0, -4, -4
1503963539454,-1, 0, 0, -2, -1, -1, -1, 9
1503963539459,-1, 1, -1, -2, -1, -1, 0, -8
1503963539474,12, 6, 2, 1, -3, 0, 2, 11
1503963539481,-2, 0, -1, -1, 0, -1, 1, 2
1503963539496,1, 1, -1, -2, -2, 0, 0, -2
1503963539503,-4, -1, 0, 0, 1, 0, -3, -5
1503963539511,-5, -3, 0, -2, 0, -1, -1, -5
1503963539526,-2, -3, -4, -1, -3, 0, -3, -5
1503963539534,-3, 0, -2, -2, -1, -1, -3, -7
1503963539541,-6, -3, -3, -3, 0, -3, -2, -4
1503963539556,-2, -2, -2, 0, -1, -2, 1, 2
1503963539564,-4, -1, 1, -2, -1, -1, 1, 4
1503963539572,-3, -2, -1, 1, -3, -1, -1, -4
1503963539588,0, -2, -1, 1, -2, 0, -1, -2
1503963539595,2, 1, -1, -2, 0, 0, -1, 3
1503963539601,2, -2, -2, -2, 0, -3, 0, 2
1503963539616,-2, -1, -1, 0, 0, 0, 0, 1
1503963539625,4, -1, -3, -2, 0, -2, 0, 1
1503963539631,-8, -2, -2, -2, -1, -1, -4, -12
1503963539646,3, -1, 1, 0, 0, -1, -1, 1
1503963539654,-1, -2, 0, 0, 1, -1, 0, -3
1503963539661,-7, -3, -3, -2, -3, -2, -4, -20
1503963539676,1, 0, -1, 1, 0, 1, 0, 4
1503963539683,2, 2, 1, 1, -2, -1, 1, 4
1503963539693,-3, -4, -1, -2, -3, -4, -2, -10
1503963539713,0, 1, -1, 0, 0, 1, 0, 0
1503963539714,0, -1, 0, 1, 0, -2, -2, -3
1503963539721,0, 0, -2, -1, -1, -1, 0, -3
1503963539736,2, -3, -2, 0, -1, 2, 1, 12
1503963539743,4, 2, 0, -2, -1, 0, -2, 0
1503963539751,1, -1, 0, 0, -2, -2, 0, 2
1503963539766,2, -2, 0, 0, 0, 0, 1, 7
1503963539774,0, -2, 0, -1, -2, 1, -1, 1
1503963539781,0, 2, 0, -1, -1, -3, 1, -1
1503963539797,-2, -2, -4, -2, 1, -1, 0, -3
1503963539803,0, 0, 1, 1, -2, -1, 1, 4
1503963539812,-1, 1, 0, -1, 0, -1, -1, -4
1503963539830,-8, -4, -3, -4, -2, -4, -4, -8
1503963539834,0, 3, 2, -3, 0, 0, 1, 7
1503963539841,2, 1, 0, 1, -1, 0, -1, 0
1503963539856,1, -1, -3, 0, -2, 0, 0, 0
1503963539864,2, 0, -1, 0, 0, -1, -1, 3
1503963539871,0, 1, 0, -3, 0, -1, -1, -5
1503963539887,1, 1, 0, 0, 1, 0, 0, -2
1503963539894,-12, -6, -4, -3, -1, -3, -4, -12
1503963539901,-6, 0, -2, -1, -1, -1, -3, -6
1503963539916,-2, 0, 1, -1, -2, -1, -2, -2
1503963539924,3, 0, 0, -2, 0, 1, -1, 1
1503963539932,1, 0, 1, 0, -1, -1, -1, -1
1503963539946,0, -1, 2, 0, -2, 0, 0, 1
1503963539956,9, -1, -1, 0, 1, 1, -2, 7
1503963539963,2, -1, 0, 0, -1, 0, 0, -2
1503963539977,3, 0, 0, 0, -1, -1, 1, -1
1503963539983,4, 1, 1, -2, 2, -1, 0, 3
1503963539984,-1, 0, -3, -1, 1, 0, -2, -1
1503963539992,1, 2, 0, -1, -1, 2, 2, 5
1503963540008,-1, -2, -1, 1, 0, -3, -2, -3
1503963540015,-3, -2, 0, 0, -1, -1, -3, -4
1503963540023,-1, 0, 0, -2, -1, -2, 2, 0
1503963540036,-1, -1, -2, -1, -1, 0, -1, -4
1503963540044,-2, -2, -2, 0, -1, -2, -2, 1
1503963540051,-5, -4, -3, -3, 0, 4, 7, 0
1503963540066,0, -1, 0, -2, -1, 1, 3, 4
1503963540074,2, 6, -2, 0, -2, -4, -3, -2
1503963540081,-1, -2, -5, -2, 2, 0, -1, 0
1503963540096,-1, -1, 3, 2, -5, -2, -2, -2
1503963540103,1, -3, -2, 2, -1, -1, -3, -5
1503963540111,-2, -1, -5, -20, -3, 0, 0, -5
1503963540126,19, 12, 17, 21, 6, 8, 19, 1
1503963540137,-5, -9, -3, 0, -5, -4, 10, -1
1503963540141,-1, -11, -11, -16, -26, -7, -10, 6
1503963540157,1, 1, 9, 9, -17, -6, -7, 4
1503963540163,12, 1, 5, 0, 3, 2, 0, 5
1503963540171,5, -3, -19, -29, -3, -2, -9, -1
1503963540186,36, 9, 78, 74, 22, 4, 33, 1
1503963540197,-52, -45, -18, -20, -16, 8, -6, -13
1503963540201,-27, 8, -43, -24, -14, -13, -14, -5
1503963540216,16, 23, -5, 38, 28, 3, 8, 2
1503963540225,-3, -3, -15, -8, -10, -4, -11, 4
1503963540231,33, 12, -22, -15, 21, 11, 4, 4
1503963540246,-29, -16, 1, -9, 21, 3, -3, -7
1503963540254,-15, -6, 10, 7, 7, -6, 8, -6
1503963540262,8, 12, -7, -14, 0, 2, -4, 1
1503963540276,12, 2, 14, 10, -6, 5, 5, 1
1503963540283,-14, -13, -22, -13, -10, -7, -7, -6
1503963540292,2, 10, 1, -2, 12, -4, -8, 3
1503963540306,3, 2, 7, 11, -7, 5, -9, -3
1503963540314,-68, 7, 16, -5, 1, 13, -1, 4
1503963540321,20, 26, -11, -19, 15, 7, -3, 2
1503963540336,17, -19, 14, 15, -14, -16, -8, 6
1503963540343,-9, -9, 1, 18, 11, 4, -1, 1
1503963540352,26, 58, -1, -5, -3, -14, -4, 1
1503963540368,-19, -29, -11, -14, -14, -11, -19, 0
1503963540374,35, 41, -7, -4, -40, -11, -3, 1
1503963540381,-23, -54, -9, -2, -8, -4, 5, -4
1503963540396,-11, -5, -25, -65, 31, 33, -3, -6
1503963540403,1, -68, 53, 50, -12, -31, -1, 3
1503963540419,-6, -36, -43, 7, -15, -16, -1, -8
1503963540427,-3, 41, -35, -31, -13, -3, 4, 0
1503963540434,7, -1, 13, -1, -4, 7, -1, -3
1503963540448,8, 48, 13, 1, 10, 26, -5, -3
1503963540456,0, -2, 4, 9, 5, 2, 9, 3
1503963540470,11, -26, -20, -35, -28, -25, 5, 2
1503963540478,25, 30, 16, 42, 1, 21, 0, 7
1503963540494,1, 45, -15, -3, 9, 33, 1, -3
1503963540495,1, -37, -15, 2, -50, -94, -1, 1
1503963540508,-3, -28, -18, -24, 35, 19, -7, 1
1503963540516,2, 37, 14, 9, 9, 57, 6, 2
1503963540523,-8, -8, 6, 4, 15, -14, -13, -4
1503963540538,-9, -76, 0, -6, 37, 67, 1, 1
1503963540546,-3, -72, 7, 26, 17, 91, 5, 2
1503963540554,-9, 1, 7, -6, 6, -28, -14, -6
1503963540569,2, 16, -9, -5, -46, -59, -12, -8
1503963540576,0, 23, 19, 5, 29, 8, 0, -4
1503963540583,11, 81, 2, 2, 7, 94, 38, 12
1503963540599,-21, -17, 25, -3, -103, -108, -27, -5
1503963540606,4, 28, 4, -7, -4, 30, -13, -10
1503963540614,-1, 17, -7, 8, 73, 83, 18, -6
1503963540628,-8, 33, 9, -1, 14, 11, 1, -1
1503963540636,3, 10, 9, 3, 22, 47, -9, -7
1503963540643,-7, -39, -7, 0, 39, 76, 27, 3
1503963540658,-17, -44, 16, -12, -70, -98, -43, -16
1503963540666,1, 55, 12, 2, -1, -10, 8, 3
1503963540674,-6, -1, -5, 12, 59, 69, 23, 9
1503963540688,2, 23, 13, 5, -30, -105, 0, -3
1503963540696,6, 38, -15, -7, -95, -128, -9, 4
1503963540704,12, 0, 0, 7, 12, 55, 11, 3
1503963540718,1, 14, -6, 1, 50, 46, -7, -22
1503963540731,-20, 0, -8, -4, 23, 51, 2, 5
1503963540734,42, 24, -27, -12, -79, -61, -31, 2
1503963540748,20, 38, -1, -6, 40, 54, 11, 8
1503963540756,6, 51, 15, 5, 54, 27, 22, 32
1503963540763,-9, -35, 7, 5, 19, 59, -18, 10
1503963540778,-7, -53, -3, 4, 76, 127, 43, -7
1503963540786,-21, -65, -21, -17, -66, -107, -68, -7
1503963540797,-5, 36, 26, -3, -13, 16, -24, -13
1503963540808,-3, 1, -6, 7, 72, 56, 53, 9
1503963540816,-19, -56, -33, -3, -18, 7, 6, -19
1503963540823,19, -14, -14, -6, -55, -66, 11, 16
1503963540839,-19, -67, -3, 9, 42, 47, 18, -17
1503963540846,7, 36, 18, -8, -63, -128, 2, 55
1503963540854,16, 26, -9, -17, -114, -128, -18, 86
1503963540868,4, 16, 6, 4, 32, 76, 31, 26
1503963540876,-16, -1, 13, 0, -5, 1, -9, -17
1503963540883,3, -1, 1, -3, 4, -81, -11, -23
1503963540898,-17, -21, -3, 18, 55, 39, -9, -17
1503963540906,-3, -21, 1, 1, -13, 8, -10, -27
1503963540914,0, 12, -8, -19, 63, 4, 22, 0
1503963540931,-7, -15, 8, 8, 37, 6, -1, -10
1503963540936,14, -3, -4, 5, -52, -12, -29, -2
1503963540943,-20, -26, -17, -6, -30, -14, -27, -38
1503963540958,-4, -31, 2, -4, 4, 24, 20, 33
1503963540966,10, 7, 7, 9, -21, -18, 4, -2
1503963540974,-2, 4, -4, -6, 6, 1, 5, -11
1503963540988,-1, -6, 1, -4, 2, -3, -3, 2
1503963540998,4, -1, -4, -1, 0, 15, -4, -9
1503963541003,-2, 6, 0, 5, -7, 6, -5, 5
1503963541018,4, 5, 3, 3, -6, -4, 10, 0
1503963541026,0, -5, -3, -3, -5, -12, -27, -11
1503963541034,0, 9, 1, 0, -3, 4, 5, 3
1503963541048,-1, -7, -3, -11, -7, -4, 3, -6
1503963541056,-3, 7, 2, 5, 4, 8, 14, 2
1503963541063,3, -1, -15, -6, -24, -16, 16, -6
1503963541078,3, 4, 6, -6, 6, -24, -9, -2
1503963541086,-4, -1, -5, 0, -15, -5, -27, 0
1503963541094,6, 2, 6, 11, 9, 11, 6, 11
1503963541109,10, 0, -2, -7, -11, 9, 3, 22
1503963541116,2, 2, 10, 9, -8, 8, -11, -22
1503963541123,0, 1, 17, 2, 9, 21, 11, -18
1503963541139,-2, -4, -16, -5, -10, -16, 18, -1
1503963541146,-9, -4, -12, -7, -21, -42, -20, -22
1503963541154,-11, -1, 2, -5, 0, 9, -4, -17
1503963541168,-1, 3, 6, 18, 4, -1, -11, 1
1503963541176,6, -4, -15, -9, 1, -2, -2, 6
1503963541183,10, 12, 25, 14, 3, 5, 2, 12
1503963541199,11, 13, 3, 1, 12, 8, 1, 5
1503963541207,-8, -20, -6, -3, 7, 1, -1, -19
1503963541214,-11, -30, -1, -14, -14, -5, 28, 4
1503963541228,18, 4, 3, -1, 4, 2, 16, 9
1503963541236,-7, 5, 7, 7, -1, -1, -7, -6
1503963541244,-19, -19, -21, -15, -2, 4, -3, -32
1503963541258,34, 25, 20, 11, 2, 7, -8, 96
1503963541266,29, 2, 20, 21, -5, -14, 8, 8
1503963541267,-48, -75, -11, -3, 4, 1, -20, -75
1503963541274,-25, 3, -13, 5, -2, -1, -6, 2
1503963541288,12, 36, 8, 21, -7, -6, 37, 43
1503963541296,-13, -9, -7, -15, -2, -55, -12, -2
1503963541303,-4, 3, -3, -25, 11, 1, 7, -6
1503963541318,-72, -4, 11, 10, -1, 9, -13, 9
1503963541326,-43, -8, 27, 12, 5, -2, -16, 1
1503963541341,68, 7, 2, -9, -6, 5, -1, -1
1503963541348,-87, -16, -13, -15, -1, 12, -4, -45
1503963541356,27, 1, 19, -3, 0, 9, 3, -20
1503963541370,72, 23, -14, 0, -2, -1, -7, 55
1503963541378,16, 19, -27, -7, 3, 13, -24, -47
1503963541386,56, 8, 9, 2, 1, -14, -1, 32
1503963541401,30, 0, -6, 9, -6, 11, 70, -23
1503963541408,65, 15, -2, -1, 1, 1, -62, 46
1503963541416,10, 1, 17, 16, 4, 3, -2, 25
1503963541430,13, 16, -9, -8, -3, 1, -16, -27
1503963541438,-56, -13, 13, 11, 8, 1, -10, -44
1503963541446,-54, -9, -12, -5, -3, 9, 6, 10
1503963541461,-45, -6, -15, -20, -5, 1, -5, 0
1503963541468,-8, 6, 40, 12, -1, -2, 30, 4
1503963541477,10, -14, -19, -21, -2, 15, -5, -9
1503963541490,33, 26, 26, 2, -1, 1, 25, 34
1503963541501,53, -39, 12, 8, 2, -2, -8, 27
1503963541506,35, -6, -18, -7, 0, -1, -1, 16
1503963541521,30, 9, -25, -14, -12, -18, -18, -65
1503963541528,17, 9, -7, 0, 3, 4, 9, -8
1503963541537,-42, -12, -5, 0, 3, 1, -16, 37
1503963541550,-17, 5, -11, 5, -7, -2, -7, -65
1503963541558,18, 2, -1, -4, -1, 1, 5, 28
1503963541567,-47, -13, -11, 3, 2, -1, 2, -8
1503963541581,10, 9, -2, 4, -5, -11, -9, 18
1503963541588,-65, -1, -10, 8, -2, 2, -1, 76
1503963541597,-43, -22, -24, 8, 4, -5, -5, -103
1503963541610,32, -1, -19, -19, -2, 19, 14, 10
1503963541618,-6, 12, 15, 10, 16, 13, 5, 38
1503963541626,73, 6, 0, -12, -23, -19, 62, 6
1503963541641,74, 10, 6, 1, 9, 5, 24, 29
1503963541648,-8, 1, 1, -2, 2, -7, -8, 10
1503963541656,24, 18, 4, 0, -7, -7, -26, 6
1503963541670,-40, -3, 13, 12, 0, -8, -24, -86
1503963541678,-61, -16, -8, -7, -1, 2, -9, -20
1503963541686,35, -2, -10, -8, 0, -1, -11, -16
1503963541702,-21, -21, -16, -13, -16, -17, -16, -44
1503963541708,9, 4, 8, -1, 5, 3, -5, -15
1503963541716,3, 5, 2, -1, -5, 1, 21, 74
1503963541730,-53, 5, 11, -4, 6, 0, -18, -18
1503963541738,31, 21, 13, -3, -2, -3, -7, -40
1503963541752,66, -54, 12, 13, 3, 1, -2, -30
1503963541761,-8, -5, -1, 0, 1, -1, 3, 29
1503963541775,24, 31, 0, -9, -3, -4, -8, 62
1503963541777,-24, 3, 3, -3, -1, 4, 7, -41
1503963541790,-8, 3, -14, -5, -1, 0, -22, -26
1503963541798,8, 8, 8, -4, -3, 0, -2, -27
1503963541806,-2, 10, -30, -10, -2, -1, 11, 54
1503963541821,92, -20, 8, 12, 3, 1, -2, 27
1503963541828,69, -8, -11, -3, -1, -8, -6, -1
1503963541836,0, 20, 6, -2, -2, 0, 9, 28
1503963541850,-48, -2, -7, -2, 1, 1, 7, 25
1503963541858,-40, 8, 14, 0, -2, -2, -1, 8
1503963541866,-29, -4, 5, 0, 2, 2, -1, -30
1503963541881,-24, -17, -20, 3, 2, 1, 2, 27
1503963541888,17, -21, 41, 1, -1, 0, -3, -6
1503963541896,-11, -47, -26, 1, 0, -3, -1, 7
1503963541897,2, 37, -11, 0, 0, -2, 2, -37
1503963541910,-99, -42, -23, -1, 3, 1, -4, -45
1503963541918,5, -11, -10, -3, 0, 4, 4, -13
1503963541926,-26, 9, 2, 4, 2, 5, 6, 38
1503963541941,-12, 20, -24, -3, -1, 0, -10, -4
1503963541948,6, -36, 18, 10, 4, 5, 1, 8
1503963541956,-29, -11, 2, -3, -5, -4, -2, -1
1503963541971,18, 20, -11, -4, -3, 0, 4, 18
1503963541979,28, 20, 9, 2, 1, -3, 2, 36
1503963541986,29, 42, 9, -1, 1, 5, 16, 50
1503963542001,10, -2, 2, 3, 1, 3, -5, 20
1503963542008,28, 11, 15, -2, -5, -3, 5, -7
1503963542016,-40, -70, -28, -7, -2, -6, -3, -33
1503963542030,24, 11, -11, -7, -1, -2, -7, -25
1503963542038,38, 18, 25, -6, -1, -5, 33, 14
1503963542046,-1, -19, -16, -5, -2, -3, -1, 23
1503963542061,-9, -72, -23, 1, -3, 0, -8, -9
1503963542068,-10, -15, -11, 3, -1, -2, -2, -14
1503963542077,0, 19, -6, -8, -5, -3, -9, -2
1503963542090,-9, -1, 1, 9, -2, 0, -11, 5
1503963542098,-9, 6, 6, 0, 0, 5, -8, -21
1503963542106,14, 5, 2, -4, 0, 5, -9, -3
1503963542121,-2, -17, -1, -11, 0, -1, -11, -16
1503963542128,12, 46, -6, 5, 3, 0, 2, -24
1503963542138,-9, -7, -4, 6, 4, 3, 1, 15
1503963542150,4, 16, -11, -10, 1, 11, 4, -3
1503963542158,-1, 9, 5, 6, -1, 0, -1, 3
1503963542166,-12, -4, 3, 6, -2, -3, 3, -4
1503963542181,-6, 14, 27, -5, -4, -5, -4, -3
1503963542188,17, -26, -5, -11, -2, -4, -2, -1
1503963542197,-31, 39, -10, 3, 2, 0, -11, 5
1503963542198,-11, -4, 20, 14, 3, -1, 0, -1
1503963542210,29, 13, 17, 4, 1, -1, 4, 4
1503963542218,29, 29, -13, 3, -6, -1, 4, 9
1503963542226,-2, -22, -18, -7, -4, -3, -9, -12
1503963542241,-9, -4, -21, -10, -2, -5, -3, 3
1503963542249,13, -36, -21, 16, -3, -4, 0, 32
1503963542257,-13, -26, -18, -5, -6, -7, -12, -11
1503963542272,-17, 69, 14, -9, -3, -2, 1, -2
1503963542278,-1, -64, -18, -6, -1, 1, -2, 27
1503963542279,22, 3, 8, 5, 1, 1, -5, 9
1503963542292,-28, -1, -13, 2, -2, -5, -9, -29
1503963542293,7, 3, 6, -2, 0, -2, 2, -2
1503963542301,22, 20, 7, -3, 0, -1, -13, -42
1503963542308,-40, -17, 22, 3, -1, -1, -2, -27
1503963542323,2, 18, 3, -7, 5, 5, 8, 29
1503963542330,-41, -18, -4, 1, 1, -5, -2, -13
1503963542341,-23, -8, 2, -8, -2, 0, -3, -20
1503963542353,30, 7, 4, 14, 0, -1, 9, 4
1503963542361,30, 25, 7, 10, 6, 2, 6, 41
1503963542368,9, 14, -5, -6, -7, -1, -2, 2
1503963542383,1, -4, 14, -4, -3, -1, -11, -4
1503963542390,-15, -10, -5, -2, 6, 8, 7, 18
1503963542398,-21, -21, -23, -8, 3, -4, -15, -30
1503963542413,-15, -1, 10, 10, 8, 0, -5, -12
1503963542421,7, 0, -16, -3, 0, 4, 16, 20
1503963542428,-5, -21, -7, -3, -15, -11, -3, -17
1503963542443,-12, 12, 28, 10, 2, -1, 8, -11
1503963542450,21, -11, -5, -7, -3, 0, -11, -6
1503963542458,-20, -11, -4, -1, -4, -2, -21, 10
1503963542474,-5, -7, -9, -8, -2, -3, 3, 21
1503963542481,-16, -4, -4, 3, 0, -4, -6, -31
1503963542488,-16, 33, -6, -17, -2, -1, -2, 26
1503963542503,11, 25, 8, 19, 4, 1, 7, 21
1503963542510,11, 5, -10, -2, 2, -1, 1, -11
1503963542518,0, -18, -10, -11, -3, 0, 10, 12
1503963542532,-3, 4, 5, 5, 4, 7, -19, -22
1503963542541,17, -5, 1, -1, 3, 3, 14, 14
1503963542549,9, -10, 5, 3, -1, 2, -10, -25
1503963542563,-24, 0, 0, -4, -3, -6, 38, -17
1503963542570,-3, -17, 4, 4, 0, -2, 2, -24
1503963542578,35, 28, 1, 1, -9, 1, -6, 20
1503963542592,10, -4, 2, -6, 0, 1, 1, 20
1503963542593,-97, -52, -6, -6, -5, -5, -3, -12
1503963542601,17, 6, 1, -1, -6, 1, -10, -8
1503963542608,26, 8, 9, 10, 7, -3, -1, 15
1503963542623,-14, -18, -11, -8, -4, 2, 1, -24
1503963542630,30, 12, 0, -3, 5, 3, 17, 34
1503963542638,-4, -14, -6, -6, -2, 2, -33, -28
1503963542653,34, 8, 2, -3, 2, -7, 4, -15
1503963542661,-40, -27, -2, 7, 13, -1, -4, -2
1503963542668,26, 7, 2, 6, 0, 8, -10, 8
1503963542684,-16, 0, -11, -10, -9, -4, -10, -8
1503963542690,21, 2, -1, 4, -10, -8, 7, 0
1503963542698,19, -10, 3, 2, 18, 5, 0, 15
1503963542713,-13, 3, -2, -5, 7, 5, 4, 1
1503963542721,3, 1, 18, 15, 22, -15, -1, 15
1503963542729,-16, -1, -2, -6, -27, -9, 11, -5
1503963542743,3, 12, -1, -5, -7, -4, 5, 10
1503963542758,-33, -5, -3, 5, 40, 25, -4, -1
1503963542759,-23, 7, 11, -2, -13, -2, -6, 3
1503963542773,25, 0, -2, 3, -8, -5, 0, -8
1503963542781,18, -1, -7, -5, -12, -2, -11, 5
1503963542788,-4, 0, 0, -5, 0, 4, 0, 12
1503963542803,-47, -21, -9, -3, -12, -9, 1, -17
1503963542810,-21, -19, -5, 2, 3, -1, -5, 16
1503963542818,16, 14, 0, 0, -2, 6, 15, 12
1503963542833,1, -9, -5, -5, -23, -20, -2, 3
1503963542843,11, -2, -11, -5, 17, 7, 6, -6
1503963542848,13, 38, 18, 2, -7, -4, 3, -8
1503963542863,-65, -3, 5, 4, 0, 7, 4, -13
1503963542870,-7, -1, -2, 1, 2, -1, -5, 12
1503963542878,8, -1, -2, -3, -20, -17, 1, 5
1503963542892,-38, -16, 2, -3, -2, 6, -10, -4
1503963542901,25, 2, -4, -1, -8, 2, 0, 0
1503963542910,25, 7, 1, -4, 2, -2, 8, -18
1503963542923,3, 9, 2, 6, -3, 1, -13, -7
1503963542930,-10, 0, -17, -7, 1, -5, -2, 4
1503963542938,8, -39, -12, -1, 4, 11, 6, -8
1503963542952,32, -6, 1, 3, -7, -4, -26, -3
1503963542960,39, 13, 2, 0, 6, 0, 5, 3
1503963542968,33, 10, -3, -2, -8, -32, -13, -1
1503963542983,-7, 9, -1, -1, -1, 10, -25, -6
1503963542991,-10, 4, 1, 0, 26, 1, -13, -4
1503963542998,3, 2, -2, -14, -29, -45, -47, -25
1503963543020,-38, -19, -20, -12, -13, 4, 1, -11
1503963543021,36, 9, 11, 13, 8, 7, 27, 27
1503963543036,37, 14, 9, 3, 8, 13, 7, 4
1503963543046,-6, -1, -5, -11, -5, 8, 7, -5
1503963543058,-20, -17, -3, 4, 3, 11, 9, -2
1503963543059,-6, -4, -1, -6, -12, -16, 7, 2
1503963543074,16, 3, 6, 3, 11, 8, -2, -2
1503963543081,-7, 9, 11, 6, 9, 6, 9, 0
1503963543096,-31, -3, 4, -1, -6, -4, 7, -7
1503963543103,-3, -1, -6, -2, -2, 0, 2, 3
1503963543113,-2, 10, 13, 4, 0, 9, 26, -4
1503963543118,17, 5, -2, -1, -26, -6, -8, 11
1503963543134,-58, -4, -13, -6, -3, -11, -28, -17
1503963543141,-11, -5, 17, 9, 7, 1, 5, -9
1503963543157,34, 10, -1, -1, -11, 8, 14, 16
1503963543163,9, -2, -16, -5, -1, 2, 5, -6
1503963543171,-71, -30, -5, 6, 0, -3, -10, -3
1503963543172,4, -4, 17, 6, 2, -3, -1, 3
1503963543179,-14, 14, 1, -2, 6, 3, -18, 6
1503963543194,-3, -9, -7, -3, 8, 2, -6, -4
1503963543200,-12, -12, -6, -10, -5, 2, 1, 5
1503963543216,1, -17, -2, 11, -4, -5, -11, 18
1503963543223,9, 10, 16, 2, 10, 6, 10, 12
1503963543231,15, 4, 0, 4, -1, -7, 0, -5
1503963543246,6, 0, -10, -2, 9, -15, 5, -3
1503963543254,-2, -4, -6, -10, -6, -19, -36, 3
1503963543260,-13, -3, 4, 0, 0, 3, 8, -3
1503963543279,15, 10, 8, 6, -14, 4, 2, 19
1503963543280,-6, -5, -6, 0, 22, 14, 9, -8
1503963543283,12, 1, -8, 2, 5, 6, 6, -1
1503963543291,-6, 9, -1, -5, 3, -3, 15, -6
1503963543306,-26, -38, -12, -2, 3, 5, -3, -11
1503963543314,-13, -12, 4, 1, 4, 2, 13, 5
1503963543322,21, 8, 0, 5, 1, 2, 14, 17
1503963543336,6, 5, -4, -7, -23, -1, -1, -10
1503963543343,49, 21, 5, 6, 7, 5, -6, -8
1503963543351,24, -2, -13, -5, -56, -10, -7, -4
1503963543366,-6, -6, -1, -2, 3, 6, 10, -11
1503963543374,-11, -2, -6, -5, 13, -2, 12, 0
1503963543381,22, 26, 6, 6, 2, 4, -15, 15
1503963543396,7, -2, -8, 0, -4, -3, -3, -2
1503963543403,-29, 2, -5, -2, 4, -1, 3, -4
1503963543414,24, 6, 0, -4, 1, 2, 0, 10
1503963543426,8, 14, 1, -7, -5, 0, -2, 12
1503963543434,-9, 0, 4, 7, 22, -4, -34, -23
1503963543440,12, -8, -1, 3, -7, -27, -32, -2
1503963543441,-39, -12, -4, -11, -12, -9, -7, -13
1503963543456,3, 17, 10, 1, -2, 1, 4, -9
1503963543463,52, 0, 2, 0, -1, -8, -27, 4
1503963543481,12, 10, 3, -5, -1, 10, 21, -1
1503963543486,-10, 13, 3, 8, 1, 3, 22, -1
1503963543494,-4, -8, -2, -4, -6, 14, -20, 2
1503963543500,-29, -11, -4, -8, -2, -3, -7, -6
1503963543517,-22, -5, 1, 2, -16, 4, 8, 2
1503963543523,27, -1, 0, 3, -5, -2, 4, 50
1503963543531,10, -17, -5, -6, 2, -8, 6, 9
1503963543548,1, -1, 4, 5, 24, 8, 7, -22
1503963543554,-22, 5, 13, 13, 12, 7, 0, 4
1503963543560,19, 9, -4, -7, -6, -10, -4, -9
1503963543561,-16, -1, -6, -7, -14, 1, 4, 4
1503963543576,-37, -8, -9, -8, -2, -14, -13, -6
1503963543583,-21, -17, -6, -1, 3, -3, -8, -43
1503963543599,45, 11, 1, 10, 7, 2, 13, 17
1503963543606,17, 5, -9, -4, -7, -2, 4, -5
1503963543615,7, 2, -11, -9, -4, -4, 2, -1
1503963543621,7, -6, -2, -8, -1, -11, -23, 23
1503963543636,3, -1, 31, 7, 11, -9, 13, 1
1503963543643,0, -5, 10, 8, -47, -6, 8, -1
1503963543652,-16, -15, -10, -7, 3, -5, -3, -57
1503963543666,-10, 7, -6, 0, 9, -6, -11, -77
1503963543674,2, 8, -2, -5, -13, 5, 3, -1
1503963543683,-58, -7, -3, 16, 13, 8, 13, 32
1503963543696,-1, -14, -4, -4, 1, -7, -4, 9
1503963543703,9, -7, 2, -4, 3, 4, 18, 25
1503963543711,4, 0, -11, -3, -5, -1, -5, 49
1503963543726,6, -24, 1, 1, 0, 1, -19, -22
1503963543734,4, 1, -16, -8, 3, -1, -4, 9
1503963543741,-3, -19, 2, -7, 9, 6, 18, 21
1503963543756,-90, -5, 12, 7, 11, -20, -13, -21
1503963543763,-33, -2, -11, -15, -16, 2, -10, 23
1503963543771,9, 3, 2, 5, -4, 15, 9, 16
1503963543786,16, 24, 4, 20, 4, -2, 4, -9
1503963543794,7, 11, 16, 0, -5, 0, -12, 11
1503963543801,40, 15, 1, -8, -2, -5, 41, -7
1503963543817,2, -5, -12, -2, 1, -3, -7, -27
1503963543823,-24, -4, -1, -5, -3, -2, -18, -41
1503963543831,-56, -27, 6, -12, -7, -6, -5, -11
1503963543846,15, 14, 26, 20, 11, 3, -5, 20
1503963543854,43, 8, -6, 4, 1, 1, 1, 28
1503963543861,-39, -10, -13, -6, -1, -2, -17, 18
1503963543876,16, 2, -4, -2, -16, 5, 2, -56
1503963543884,18, 3, -6, -6, 4, 1, 0, 45
1503963543891,-22, -5, -7, 1, -5, -8, -4, -81
1503963543892,4, -19, -5, 2, 2, 12, -5, 22
1503963543906,61, 1, -9, -5, -6, 0, -1, -28
1503963543913,12, 2, 25, -2, 2, -1, -5, -14
1503963543921,13, -17, -15, -16, -3, -4, 3, 20
1503963543936,-78, 2, 13, -2, -6, -12, -8, -51
1503963543943,-28, 9, 3, 1, 2, -4, 2, -8
1503963543951,29, -2, -31, -17, -3, 1, 4, 38
1503963543966,-17, -42, -3, 5, 0, 2, -5, 1
1503963543974,24, 18, 11, 2, 3, -4, 24, -2
1503963543981,20, 7, 0, 9, 10, 4, -1, 0
1503963543996,1, -5, -13, -2, -16, 1, -8, 6
1503963544003,-23, 7, 9, -8, -4, 0, 11, 31
1503963544011,1, 2, -1, 22, 2, -5, -2, -17
1503963544026,38, 7, -6, -1, -1, -1, -1, 4
1503963544034,17, -9, -10, -5, -1, -5, -5, -1
1503963544041,-12, 1, 0, -14, 1, -2, 3, 7
1503963544057,14, -1, 14, 16, 9, 5, 27, 57
1503963544063,25, -4, -1, -3, -4, -2, -15, -2
1503963544078,16, 5, -26, -19, -2, 2, 6, 8
1503963544086,-19, -32, 47, 41, 5, 2, -1, -27
1503963544094,0, -25, -8, 2, 3, 2, -20, -6
1503963544101,-22, 10, -25, -20, -10, -5, -10, -27
1503963544117,2, 6, 8, 2, 0, 1, -6, -9
1503963544123,-15, 2, -1, 1, 3, 1, -2, -5
1503963544138,-51, 3, -14, 7, -8, -1, 0, -13
1503963544146,7, 4, 8, 1, -6, -2, -2, -24
1503963544154,22, 5, 9, 13, 5, 4, 4, 13
1503963544168,-9, 0, -10, -3, -2, 4, 3, 2
1503963544176,-6, -6, -7, -11, -2, 3, 5, 11
1503963544183,6, 11, -4, -12, -3, -2, -3, -6
1503963544198,13, 2, 6, 4, -2, -10, 22, 17
1503963544205,14, 7, -2, -4, 2, 1, 1, 12
1503963544214,7, 8, 7, 0, 3, 3, 0, -17
1503963544229,-15, -5, -3, -1, -5, -6, 2, -1
1503963544236,15, 0, -4, -9, 2, 2, -2, -73
1503963544243,7, -1, -5, 3, 2, -21, -3, 7
1503963544258,-32, 3, -3, -9, 4, 0, 2, 44
1503963544266,-6, 1, 1, 2, 3, 8, 6, 19
1503963544274,-20, -7, -19, -15, -2, -11, -8, -4
1503963544288,-59, -32, -25, -24, -1, 5, -26, -51
1503963544303,11, 9, -20, 15, 0, 6, 2, 8
1503963544304,30, 25, 51, 51, -2, 6, 4, 3
1503963544320,-7, -20, -15, 4, -3, -7, -17, -3
1503963544326,-1, 0, -14, 12, -1, -6, 19, -9
1503963544333,-2, -11, 9, -3, 2, 6, -22, -18
1503963544334,27, 5, 10, -10, -2, 2, 14, 26
1503963544348,13, -10, -17, -22, -8, 1, 5, 3
1503963544356,-11, -17, -5, -12, 0, -3, -11, -50
1503963544363,-10, 16, 26, 45, -1, -1, 9, 10
1503963544378,9, 5, 10, 11, 1, -5, -16, -17
1503963544387,23, 1, -25, -42, -4, 0, 45, 0
1503963544394,-31, -1, 2, -5, 1, 10, 0, 3
1503963544409,-21, 2, 0, -7, 4, 4, -5, 40
1503963544416,-8, 0, 11, -6, -2, -4, 5, 4
1503963544423,24, 8, 6, 5, 6, 4, -2, 9
1503963544438,29, 4, 5, -1, -1, -1, -12, -8
1503963544446,-15, 1, -3, -11, -3, -3, -13, -10
1503963544454,10, 12, 21, 6, -4, 1, -3, 6
1503963544468,-2, -18, -27, -19, -4, -3, -9, -11
1503963544476,2, 4, -16, -5, 1, 0, 0, -10
1503963544483,-17, 4, -5, -3, -5, -2, -10, 11
1503963544498,2, -2, 2, 1, -5, -3, 0, 14
1503963544506,31, -8, 3, 4, 3, 0, -7, -23
1503963544514,-10, -5, 7, 0, 0, 3, 19, -6
1503963544528,-5, 7, -8, -13, 5, -3, -33, 18
1503963544536,-16, 10, 5, -5, -3, -5, -22, 1
1503963544543,10, -2, -12, -33, 4, 6, 5, 26
1503963544558,4, -9, 14, 36, 8, 5, 3, -13
1503963544565,-13, 16, 4, -31, -5, -3, -5, -11
1503963544574,-3, -14, 31, 11, 2, -2, 4, 4
1503963544588,-3, -16, -15, -2, -7, -6, 0, -16
1503963544597,-11, -20, -13, -4, 2, -2, -1, 3
1503963544603,6, 6, 16, 10, 5, -4, -6, -6
1503963544618,-2, 12, -10, -5, -4, -2, -19, -12
1503963544626,1, 8, 7, 12, -2, 1, -7, -5
1503963544634,50, 19, 1, -21, -4, 2, 20, 44
1503963544648,-39, -25, 14, 12, -5, -6, -19, -15
1503963544656,26, 32, 3, -4, 1, -1, -3, -12
1503963544664,0, -6, 2, 17, 1, -1, 10, 4
1503963544678,-4, -7, -17, -8, -8, -1, -6, -22
1503963544686,-28, -8, -4, 4, 2, 2, 3, -30
1503963544694,-1, -11, -24, -13, -7, 0, 3, -17
1503963544708,-1, 11, 13, 42, -2, -6, -24, -45
1503963544716,1, 4, 13, 6, 5, 6, 7, 29
1503963544723,27, -4, -33, -33, -17, -17, 6, 11
1503963544738,-2, -5, 4, 29, 34, 13, -9, 0
1503963544746,11, 9, 3, -1, 4, 4, 8, 11
1503963544757,8, 5, 1, -13, -14, -12, -1, 18
1503963544768,16, -13, -20, 2, -1, 7, 7, 40
1503963544777,25, 3, -3, 25, -2, 2, 6, 23
1503963544783,-19, -12, 0, -10, -5, -1, 2, 3
1503963544799,-30, -28, -2, -14, 0, -1, -7, -19
1503963544806,-55, 6, -12, -10, -4, -7, -4, 14
1503963544814,-13, -60, 23, -5, -17, -8, 2, -1
1503963544828,25, -15, -7, 3, 3, 3, 3, 27
1503963544829,12, -7, -1, -4, 5, 3, -2, -16
1503963544836,0, 32, 8, 8, -4, -5, 0, -5
1503963544843,17, 4, 6, -9, -5, -2, -2, -10
1503963544858,-6, 5, 16, -20, -4, 2, -6, -12
1503963544866,13, 11, 15, 0, 5, 1, 7, 11
1503963544874,-26, -5, -35, -24, -1, -3, -1, -11
1503963544889,-37, 22, 44, 3, 12, 6, 2, -27
1503963544896,8, -6, -49, -45, -11, -7, 3, 15
1503963544903,10, -4, 13, 30, 1, -2, -2, 2
1503963544918,-6, 2, -10, -2, 2, -2, -7, -15
1503963544927,16, -7, -7, 8, 1, 4, 1, -5
1503963544934,-2, 19, 12, 20, 1, -4, -3, 10
1503963544948,21, 5, -18, -24, -6, -1, -1, 2
1503963544958,17, 23, 29, 43, 5, 1, 10, 6
1503963544971,25, -15, 6, 4, 3, 1, 2, 11
1503963544981,-7, -13, -11, -13, -11, 0, -2, -2
1503963544985,-16, -6, -18, -6, -3, 1, 0, 27
1503963544995,38, -1, 2, 4, 4, -2, -2, 29
1503963545008,2, -9, -21, -12, -7, -3, 19, 12
1503963545016,-9, 12, 43, 37, 8, -1, -24, -25
1503963545025,3, 0, 18, 8, 2, 0, -1, -1
1503963545038,1, -7, -31, -39, -9, -5, -1, -15
1503963545045,-9, 6, 3, 15, 1, 0, -6, -17
1503963545053,2, 13, 4, 2, -4, 0, 1, 19
1503963545054,-6, -12, -13, -16, -1, 0, 4, 7
1503963545068,9, 13, -1, 36, 4, 3, 2, -2
1503963545076,-21, 4, -13, 13, 5, -1, 1, -15
1503963545092,-6, -5, -28, -38, -5, -2, -11, -49
1503963545098,-19, 23, 34, 57, 11, 4, 3, 2
1503963545106,11, 6, 1, -15, 1, 0, 5, 28
1503963545120,13, -12, -4, 8, -3, 1, 0, -19
1503963545121,-10, -6, -42, -39, -9, -3, -2, 29
1503963545129,-2, -7, -6, -18, -5, -6, -8, -12
1503963545136,15, 1, 19, 18, -9, 1, 5, -6
1503963545151,-13, -14, -2, -13, -4, -3, -10, -34
1503963545160,3, -23, 14, -37, 5, 2, 5, -1
1503963545166,2, 14, 63, 27, 5, 2, -12, -4
1503963545180,15, 6, -17, -5, -4, -2, -3, 5
1503963545188,0, -13, -38, -16, -9, -3, 3, 28
1503963545197,-12, 6, 38, 43, 5, -2, 0, 19
1503963545211,18, -9, 8, 2, -1, 0, 10, 51
1503963545219,21, -4, -11, -21, -2, -2, 1, -14
1503963545226,-5, 1, 1, 9, 6, 1, 3, -17
1503963545240,1, -9, -30, -27, -3, -3, 0, 4
1503963545248,-5, 5, 8, 14, 2, -3, -5, -27
1503963545256,-4, 1, -3, -8, -17, -5, -8, -26
1503963545271,-48, 0, 11, -14, -3, 1, 1, -22
1503963545279,-14, 6, -8, -21, 3, 2, 3, 12
1503963545286,11, -4, 3, 1, 0, 0, -2, -3
1503963545301,7, 0, 8, 45, 4, 0, 2, -5
1503963545308,-38, 1, 6, -5, -1, -1, -2, 7
1503963545316,1, -8, -13, -19, -4, -1, 0, -24
1503963545331,6, 6, 19, 36, 5, 1, -10, -5
1503963545338,-41, -29, -15, -5, 2, -1, 0, -1
1503963545352,10, 8, -19, -17, -3, 3, 4, -6
1503963545361,13, 15, -17, -8, -2, 1, -1, 20
1503963545369,13, 0, 7, 16, 3, 4, 8, 42
1503963545376,0, -3, -4, -7, -2, -2, -2, -1
1503963545391,4, -7, -20, -23, -2, -6, -6, -3
1503963545399,9, 15, 51, 37, 8, 0, 2, 10
1503963545406,17, 2, -18, -10, -5, -4, 1, 6
1503963545421,0, 5, -23, 0, -1, 4, 2, 14
1503963545428,2, 5, -7, 4, -3, 0, 6, -1
1503963545436,-8, 8, -8, 1, -3, -9, -14, -71
1503963545457,0, -17, -60, -25, -10, -4, -4, -11
1503963545462,2, 6, 27, 46, 8, -1, 3, 11
1503963545466,-14, -11, -19, -32, -5, -6, -5, -21
1503963545481,2, 1, 10, -22, -9, -2, 12, 26
1503963545488,-6, 4, 34, 41, 3, -2, -13, 19
1503963545496,-28, -13, -16, -34, -3, 0, -8, -30
1503963545511,12, 8, 68, 8, 0, 1, -1, -40
1503963545518,12, -17, -17, -3, -2, -2, -7, -5
1503963545525,-7, 3, -13, 27, 6, 3, -2, -14
1503963545540,-33, -14, -27, -51, -11, -6, -1, -7
1503963545548,17, 2, 18, 51, 6, 2, 8, 14
1503963545556,-2, -7, -11, 22, 3, 0, -1, 51
1503963545571,-42, 7, -9, -23, -4, -3, -5, -36
1503963545585,5, 7, 18, 12, 8, 6, 8, -4
1503963545587,17, 1, 12, 14, 3, 5, 6, 12
1503963545601,3, 4, 28, 28, 7, 3, 0, 4
1503963545608,1, -15, -36, -50, -9, -5, -4, 11
1503963545616,24, 38, 37, 16, 6, 1, -5, -2
1503963545631,-7, 13, 29, -8, 2, -2, 1, 5
1503963545639,-3, -4, -29, -33, -9, -4, -3, -37
1503963545645,-71, -18, -12, 9, -8, -5, 9, -20
1503963545663,9, -30, -25, -27, -10, -5, 6, 5
1503963545668,44, 2, 14, 51, 2, -2, -1, 20
1503963545677,-5, -2, -20, 1, 0, -1, -1, 14
1503963545690,-19, -17, -28, -22, -6, 0, 6, 2
1503963545691,14, -15, -40, -38, -2, -2, -1, 17
1503963545700,8, -8, 17, 9, 5, 3, -1, -3
1503963545706,2, -9, -18, -18, -1, 2, -3, 19
1503963545720,-9, 10, 37, 3, -2, 2, 4, -26
1503963545736,13, 0, -6, 12, -6, -2, -8, -19
1503963545737,1, 0, -32, -36, -6, -2, -2, -4
1503963545750,-9, 7, -11, -23, 2, -2, 0, -32
1503963545758,16, 13, 60, 44, 9, 3, 5, 19
1503963545766,-22, -4, -23, -19, -6, -3, -1, 6
1503963545780,4, -11, -8, 20, -1, -2, -10, -28
1503963545788,-7, 4, 6, -9, -4, -5, -9, -64
1503963545798,4, 6, 14, 27, -6, -5, -4, 14
1503963545810,14, 17, 47, 41, 11, 5, 9, 32
1503963545818,-8, -29, -71, -65, -8, -5, -14, -25
1503963545825,6, 3, 44, 44, 7, 3, 10, 25
1503963545840,10, 1, -29, -21, -1, -4, 2, -6
1503963545848,11, -5, -29, -23, 0, 1, -3, 9
1503963545856,-5, 13, -11, -9, -2, 0, 3, 33
1503963545871,30, 3, 24, 38, 8, 4, 3, -43
1503963545878,-53, -2, 6, 13, 2, -4, -3, 44
1503963545879,7, -13, -8, -7, -3, -4, -5, 9
1503963545886,25, 18, -2, -24, -3, 3, 1, 23
1503963545901,-2, -3, -9, -11, 4, 1, -1, -34
1503963545908,23, 2, 31, 14, 4, 0, -12, 14
1503963545916,-18, -11, -40, -65, -16, -5, 5, 14
1503963545931,12, -5, -5, 14, 4, 0, 5, -7
1503963545932,-24, -10, 44, 74, 4, 3, 10, -11
1503963545939,8, 11, 13, 21, 6, 3, 3, 18
1503963545946,-62, -27, -98, -128, -37, -17, -14, -52
1503963545961,15, 28, 127, 98, 31, 15, 11, 10
1503963545968,-59, -28, -43, -23, -8, -9, -13, 10
1503963545976,-37, -10, -33, -10, -1, -7, -19, -49
1503963545991,27, 17, 7, -9, 9, 5, 2, 9
1503963546005,-28, -9, 19, 23, 3, 0, -3, 2
1503963546012,13, 25, -10, -10, 5, 4, 14, 29
1503963546020,27, -18, 10, -9, -5, 3, 10, 7
1503963546028,9, 3, -18, -11, -1, 1, -9, 78
1503963546043,-13, 0, 0, 17, -5, 1, 14, 34
1503963546050,29, 13, -3, 13, 5, 1, -24, 5
1503963546059,37, 0, -17, -26, -3, -4, 9, 25
1503963546073,-22, 1, 15, 12, -2, -2, 10, 5
1503963546081,-7, -1, -26, -12, -14, 1, -5, -14
1503963546088,17, -8, 8, 16, 0, 0, -4, -15
1503963546103,13, -4, 25, 38, 3, -5, -5, -58
1503963546110,-24, -14, 29, -15, 0, -4, 3, -54
1503963546119,-2, 0, -20, -15, -3, -3, -4, 18
1503963546134,31, 43, 0, -3, -2, -2, 3, 2
1503963546141,-7, 1, -2, -11, -2, 0, -9, 11
1503963546148,-20, -10, -22, -6, 2, -3, -4, -6
1503963546163,24, 15, -13, -12, 1, 0, 1, 65
1503963546171,-4, -15, -27, -18, -7, 0, 3, 4
1503963546178,6, 1, -20, -34, -8, -5, -14, 6
1503963546179,-4, 20, 39, 16, 8, 3, -8, -24
1503963546192,1, -16, -12, -4, -1, -2, 9, 3
1503963546201,-4, 5, -13, -26, -8, -4, -3, -3
1503963546208,-3, 1, 38, 67, 10, 3, 1, -4
1503963546223,13, -6, -27, -6, 0, -1, -15, -9
1503963546230,2, -11, -16, -8, -7, -5, 1, -6
1503963546238,1, -14, -9, 6, 1, 0, 9, 7
1503963546252,-3, 3, 5, -10, 0, 1, 3, 80
1503963546260,-27, 15, 5, -7, -1, -4, -3, -18
1503963546268,-5, -34, 5, -11, -5, -1, -2, -23
1503963546283,8, -21, -5, 23, 2, 0, -13, 35
1503963546290,-12, -4, -6, -12, -5, -2, 1, -7
1503963546301,-3, 9, 42, 8, -2, 0, 8, -7
1503963546312,21, 3, -22, -16, -5, -1, -15, -11
1503963546320,-48, -1, -1, 5, 0, -2, -4, -14
1503963546328,14, 3, -14, -21, -1, 0, 5, -14
1503963546343,7, 12, 23, 20, 6, 0, -8, -13
1503963546350,-14, 9, 2, 7, -3, -3, 0, -10
1503963546358,-1, -7, -17, -17, -1, 3, 7, -20
1503963546372,18, 8, 14, 6, 5, 7, 11, 11
1503963546380,5, 1, -16, -6, -4, -5, -14, -21
1503963546388,2, 9, 7, 1, -1, -1, 1, 4
1503963546403,-5, 4, -9, 7, -1, 1, 6, 3
1503963546411,8, 1, 7, 4, 2, 0, -7, -9
1503963546418,-12, 1, 3, 11, 2, 0, -7, -34
1503963546419,23, -4, 0, -17, 0, -1, 6, 8
1503963546436,-13, -12, 3, 7, -1, -1, 2, -16
1503963546441,16, -4, -9, -6, -5, -2, 5, 5
1503963546448,-25, -9, 0, 0, -1, -1, -6, 2
1503963546463,-7, -2, 0, 5, -2, 1, 7, -6
1503963546474,3, 2, -9, -17, -2, -5, -6, -15
1503963546479,-21, 20, 32, 24, 6, 2, -1, -3
1503963546492,-5, 15, 5, 1, -3, -1, -7, -6
1503963546502,39, -4, -1, 1, 1, -1, 2, 7
1503963546508,-8, 1, -9, -1, -3, -4, 4, -31
1503963546523,-28, -7, -12, -12, -5, -3, -10, 8
1503963546530,36, -6, -6, 10, 3, 0, 6, 32
1503963546531,-7, -1, 5, 3, 0, 1, 4, 18
1503963546538,-13, 5, -5, -8, 0, -1, 0, -15
1503963546539,-3, -11, -7, 4, -3, 0, -2, -85
1503963546552,5, -18, 3, 0, 1, -1, -4, -4
1503963546562,12, 10, 7, -26, 3, 2, -5, 38
1503963546570,54, 6, 6, 8, 5, 6, 2, 43
1503963546583,18, 0, -13, -1, -5, -4, -9, 19
1503963546590,23, -2, -3, -4, -2, -2, 0, 22
1503963546598,-44, -14, 4, 9, -2, -1, 3, -23
1503963546612,-15, -19, -22, -6, -4, -4, 2, -4
1503963546620,-38, -11, -15, 3, -2, -2, 3, 8
1503963546628,-20, 7, 7, 43, 4, 1, -7, -19
1503963546643,1, 6, -4, -4, -2, -5, -10, -3
1503963546650,-14, 4, 1, -11, -3, -1, 2, -7
1503963546658,20, 15, -4, -13, -3, -1, 9, 14
1503963546673,7, 0, 3, 2, 0, -2, 1, -1
1503963546681,2, -5, 5, 5, 1, 2, 6, 5
1503963546688,5, 0, 4, -4, -1, 2, -4, 4
1503963546704,13, -17, -15, -12, -2, -2, -2, 7
1503963546711,-2, 15, -4, 5, 3, -1, -2, 12
1503963546718,17, 15, -5, -5, 0, 2, 6, 13
1503963546732,-36, -10, -9, -30, -5, -1, 1, -12
1503963546741,3, -4, 8, 7, -3, -2, -4, 13
1503963546748,16, -2, 5, 3, 4, 1, -1, -2
1503963546763,-12, -9, -12, -1, -3, -1, -2, -37
1503963546771,-29, 3, -1, 2, 0, -1, 6, 0
1503963546779,-3, 1, -18, -5, -3, 1, -2, 5
1503963546792,12, -9, 8, 4, 2, 1, 1, 4
1503963546800,-2, -8, -19, -3, -2, -3, -3, -4
1503963546808,6, 11, -7, 16, 1, -1, 0, 4
1503963546823,9, -7, 5, 11, -1, 0, -2, -3
1503963546830,-24, 13, 11, 9, -2, -1, -6, -11
1503963546839,-7, 0, 1, -7, 2, 1, 6, 11
1503963546852,5, -11, -18, -19, -5, -3, -2, -7
1503963546860,-3, 0, 15, 1, -1, -3, -4, 12
1503963546875,15, -4, 3, -3, -3, -2, -3, 13
1503963546883,-3, -1, 6, 1, 3, 1, 12, 7
1503963546897,9, -7, -1, -4, -1, 0, 4, 8
1503963546899,-6, 13, 22, 1, -1, 0, -1, -3
1503963546920,20, 18, -6, -7, -2, 1, -11, -21
1503963546922,3, -5, -9, 7, 0, -1, 1, -15
1503963546935,6, 5, 0, 11, 1, 2, 4, 8
1503963546943,-11, -4, -2, -2, -4, -3, -5, 4
1503963546950,16, -14, -5, -11, -2, -4, -3, -5
1503963546965,-4, 0, 0, -15, -3, -2, -1, 4
1503963546973,7, 16, 24, 35, 4, 0, 7, 7
1503963546981,1, -8, -16, -6, 1, -2, -6, -22
1503963546995,8, -4, 22, 5, 1, 0, -3, 4
1503963547005,16, -5, -13, -9, -2, -1, -2, 3
1503963547011,-10, -24, -12, -7, -1, 2, 13, 20
1503963547025,-67, -14, -1, -4, -3, -4, -7, -13
1503963547032,-6, -5, -10, -12, -4, -4, -3, 1
1503963547041,16, 9, 2, 4, 0, 0, -1, 4
1503963547055,-13, -2, -6, -6, -3, 1, -1, -9
1503963547063,18, 5, 7, 16, 2, 2, -1, 3
1503963547073,7, -2, 24, 10, 3, 0, -1, -22
1503963547085,-20, -1, -8, -14, -2, 0, 2, 4
1503963547092,-6, -3, -18, -11, -5, -5, -2, -1
1503963547100,18, 2, 7, 2, 1, 2, 10, 17
1503963547115,0, -2, -3, -1, -1, -1, -7, -6
1503963547123,14, -7, 0, 2, -1, -2, -1, 7
1503963547131,0, 3, 15, 0, 1, 0, -2, -5
1503963547146,8, -2, -6, -4, -1, -2, -4, 2
1503963547152,3, -3, -14, -3, 0, 0, -3, -9
1503963547160,-10, 10, 20, -12, 1, -3, -3, -30
1503963547175,-8, -2, -2, -2, 1, -1, -10, -9
1503963547184,-1, -10, -13, -6, -2, 1, 19, 25
1503963547190,-3, -5, -4, -8, -6, -5, -10, 8
1503963547210,10, 16, 28, 13, 6, 2, 9, 9
1503963547216,-10, -1, 11, -1, 1, -1, -3, -5
1503963547221,-2, -6, -7, -3, -4, 1, 0, 6
1503963547235,-3, -3, -11, -3, -2, -2, -1, -4
1503963547246,16, 3, 1, 5, -1, -1, -10, -16
1503963547251,-19, 2, -2, -8, -1, 4, 4, -50
1503963547265,-15, -14, -9, 13, 0, -1, -8, -7
1503963547274,-6, -4, -13, -7, -3, 3, 11, 40
1503963547281,-7, -4, -7, 3, -2, -2, -14, 17
1503963547295,0, -4, -2, -3, 1, 4, 4, -6
1503963547303,7, 1, -5, -5, -1, -2, 11, 12
1503963547311,3, 4, 1, 0, -1, -1, 5, 9
1503963547326,26, 6, 2, -13, -1, 2, -3, -20
1503963547332,7, 3, 1, 9, 3, -2, -3, -1
1503963547341,6, -7, -11, -7, -1, -1, -2, -7
1503963547355,9, 14, 1, -3, -2, -3, -6, 1
1503963547363,-7, 9, 12, 0, -1, 0, -2, 1
1503963547370,-11, 8, 0, -5, -2, -5, -3, -1
1503963547385,0, -6, 10, 12, 3, 1, -3, -9
1503963547392,-2, -8, -8, 3, 0, 1, -1, 0
1503963547400,-40, 4, -1, -10, -5, -4, -5, -7
1503963547416,13, -1, -3, -2, -3, -2, -1, -6
1503963547423,23, 2, -2, 3, 0, 1, 0, 3
1503963547431,-6, -1, 9, -1, -2, -2, 5, 13
1503963547446,-4, -3, -7, -3, -3, -2, -3, -16
1503963547452,14, -8, -7, -1, -2, -3, -1, 5
1503963547460,-11, 5, 21, 5, 1, 0, -2, 7
1503963547475,-7, 1, 3, 3, 1, 0, -5, -12
1503963547486,2, -4, -7, -2, -2, -2, 1, 5
1503963547491,3, -3, 3, 1, 0, -1, -9, -11
1503963547506,-4, -5, -8, -2, -1, -2, 0, -1
1503963547513,2, -6, -21, 9, -2, -2, 1, 3
1503963547521,-3, -1, -7, -2, 3, 1, 1, -5
1503963547535,-9, 5, 1, -7, -2, -2, -8, 8
1503963547543,-6, -3, -9, -2, -3, 0, 0, -10
1503963547552,13, -1, -3, -3, -2, 2, 8, 11
1503963547566,-16, 0, 3, 0, -2, 0, 1, 4
1503963547572,-14, -5, -2, -2, -1, -1, -8, 1
1503963547581,-16, -7, -11, -8, -2, -4, -3, -4
1503963547595,6, 5, 8, 3, 1, 1, 3, 4
1503963547603,14, 3, -4, -5, 0, 5, 4, 13
1503963547611,-1, -25, -14, -2, -2, -2, -1, -3
1503963547626,0, 2, 0, -2, -5, -5, -3, -4
1503963547632,-2, 2, -4, -4, -2, -3, 0, -5
1503963547640,11, -3, 0, 5, 4, 1, -1, 6
1503963547655,8, 4, 3, -1, 0, -1, -6, -8
1503963547663,7, 6, 4, 0, -1, 1, -1, -6
1503963547671,-9, 3, 3, 4, 0, 0, 3, -37
1503963547686,5, -4, -5, -1, -1, -3, -2, 20
1503963547692,12, 0, 6, 3, 0, 3, 7, 33
1503963547700,14, 19, 16, -11, -2, -1, -10, 13
1503963547715,-51, -12, 6, 9, 1, -2, -8, -22
1503963547723,3, -9, -12, -5, -3, -4, -4, -18
1503963547730,1, 8, -3, -5, -3, 1, 7, 10
1503963547746,-26, 3, -2, 1, -3, -2, -4, -14
1503963547752,2, 2, 0, 2, -2, -2, 0, 8
1503963547761,5, -11, 2, 1, 2, -1, 3, 3
1503963547775,3, 0, 3, -2, 3, 1, 4, -4
1503963547783,0, -5, -4, 3, 0, 0, 2, 14
1503963547790,-5, -6, -6, -6, -1, -2, -12, -37
1503963547791,-7, 2, -3, -5, -2, -4, -4, 3
1503963547805,-3, -5, -4, 4, 2, 1, 4, 3
1503963547813,17, 5, -3, -7, -1, -2, -7, -2
1503963547821,21, -2, 2, 6, 0, 1, 11, 12
1503963547835,11, -1, 1, -1, -1, -3, 1, -7
1503963547844,-15, -9, -5, -6, -4, -3, 0, -19
1503963547851,-4, -4, -5, 0, 1, -1, -10, -6
1503963547865,11, 5, -6, -1, 0, 2, -3, 0
1503963547872,-3, 1, 1, -1, -1, 1, 3, 7
1503963547888,-2, 4, 0, 0, -1, 0, -5, -3
1503963547895,3, 1, -8, -8, -4, 2, 7, 14
1503963547903,-13, -9, 2, 4, -2, -5, -8, -24
1503963547917,-33, -4, -13, 7, -2, -2, -2, -16
1503963547925,1, 2, 0, -3, -1, 1, 3, 12
1503963547932,8, -3, -6, -5, 0, -2, 4, 9
1503963547948,-4, 1, 5, -1, 0, -2, -3, -7
1503963547955,5, -8, -3, 6, 2, 0, -2, -2
1503963547963,-3, -12, 0, 0, 1, -1, 0, 4
1503963547979,1, 4, 2, -2, 0, 1, 2, 6
1503963547986,9, 9, 19, 0, 0, -1, -3, -3
1503963547993,8, 2, 4, -4, -3, 0, -5, -4
1503963548008,-8, 1, -8, -3, -1, -1, 1, -3
1503963548016,-7, -3, -9, -2, -3, -2, -1, -3
1503963548023,2, -3, -5, 4, 1, 0, 0, 5
1503963548038,4, 0, -3, -16, -1, -1, -2, -13
1503963548046,-12, 4, 2, 12, 4, 2, -1, 5
1503963548054,8, 1, -1, -6, -4, -4, 0, 7
1503963548068,6, -1, -3, -4, -2, -2, -2, -8
1503963548076,1, -1, 12, 4, -1, 0, 0, -1
1503963548083,14, -3, -16, -5, -2, -1, 1, -6
1503963548098,-7, -2, 10, 1, 1, 1, -9, -8
1503963548105,-1, -2, -8, -8, -1, -2, 2, 9
1503963548113,5, 5, 14, 1, 1, 0, -3, 9
1503963548128,-16, 0, 4, -5, -2, -2, -4, -12
1503963548143,-4, 0, -2, 12, 0, 0, 3, -4
1503963548144,7, -2, 1, -3, -1, 2, -1, -7
1503963548145,2, -1, 4, -3, -3, 1, 3, 6
1503963548158,12, -1, -11, -5, -4, -2, -2, -4
1503963548165,-10, 11, 4, 10, 1, -2, -5, 0
1503963548173,-2, 3, 7, -7, -2, -2, 1, 3
1503963548189,-1, 2, 10, 1, -2, 0, 0, 7
1503963548196,-3, -1, 1, 5, -2, -1, 1, -8
1503963548203,3, -7, -8, -3, -2, 0, -1, 13
1503963548218,29, 5, 3, 1, 3, 1, -3, 6
1503963548226,2, 1, -2, -1, -2, -1, -4, -20
1503963548233,-6, -2, -3, -8, -3, 1, 7, 5
1503963548249,12, 0, -1, 1, -1, -2, 1, -7
1503963548257,-13, -5, -1, 9, 2, -2, -8, -19
1503963548263,-6, -3, 3, -3, 0, 1, 3, -2
1503963548282,-9, -4, -3, -2, -3, 1, -6, -5
1503963548286,-22, -21, 3, 0, 2, -1, -1, -4
1503963548301,-8, 5, 3, -2, -3, -1, 10, 15
1503963548308,15, 5, -4, -6, -2, -1, -15, -1
1503963548316,-15, -2, -3, 1, 1, -4, -6, -20
1503963548323,0, -3, -9, -6, -6, -3, -9, -14
1503963548338,9, 4, 7, 6, 3, -1, -2, 4
1503963548346,-1, 3, 0, 1, 0, -1, 4, 3
1503963548361,-7, -3, -5, -5, -2, -3, -2, -7
1503963548368,6, 3, -5, -2, -2, -1, 0, 4
1503963548376,12, -3, -3, 2, 1, 0, 1, -6
1503963548384,-48, -8, -11, -7, -2, -4, -1, -10
1503963548399,7, 25, 24, 4, 1, 0, -1, 2
1503963548405,1, -21, -2, -3, 0, 0, -3, -3
1503963548406,14, 3, -2, 9, 0, 1, 4, 9
1503963548421,4, 0, 18, -2, 0, 0, 5, 4
1503963548422,-13, -10, -25, -9, -5, -1, -4, 6
1503963548429,3, 1, -4, -3, 0, -5, -1, -6
1503963548437,8, 0, 3, 0, 0, 1, 6, 15
1503963548443,5, -5, -1, -3, -1, -3, -9, -12
1503963548458,-1, 2, -1, -4, -2, -2, 4, -1
1503963548459,-2, -2, -1, -3, -1, 0, 4, -2
1503963548465,11, 3, 4, -1, 2, 3, 5, 5
1503963548483,-29, -8, 0, 5, 0, 0, 6, -12
1503963548488,6, 3, -2, -5, -1, -1, -11, -17
1503963548496,6, -10, -11, -7, -3, -2, -2, 14
1503963548503,-5, 3, 2, -3, 0, 1, 6, 6
1503963548519,14, 5, 4, -2, 1, -1, 1, 3
1503963548525,1, -2, -2, -2, -3, -2, -2, -3
1503963548541,-5, -12, -16, -4, -4, 0, -1, -5
1503963548549,-17, -4, 6, 4, -2, -1, 6, 14
1503963548556,7, -3, 18, -2, -2, -6, -5, -2
1503963548563,7, 4, -5, -12, -2, 2, 5, 6
1503963548579,3, 2, -2, 0, -1, -1, -6, 1
1503963548586,-2, -3, 3, 1, 0, 0, 3, 8
1503963548601,-2, 4, -7, -2, 0, -2, 1, 4
1503963548608,2, 1, -4, 4, 3, 3, 0, -4
1503963548617,-3, -2, -9, 3, 2, -1, -2, -2
1503963548623,9, -10, -18, -6, -5, -5, -7, 3
1503963548639,4, 5, 10, 2, 1, 2, 0, -3
1503963548645,6, -6, -6, -4, -2, -5, -2, -6
1503963548654,-2, 0, -3, -15, 0, 0, -9, -4
1503963548668,15, -2, 11, 9, 1, 1, -3, 1
1503963548676,-18, -13, -13, -6, 0, -4, -4, 10
1503963548683,-7, 9, -3, -2, -3, -3, -1, 1
1503963548698,8, 4, 9, 6, 1, 1, 5, -15
1503963548705,0, -4, -1, 4, 0, -1, -1, -6
1503963548721,6, -9, -8, 0, -2, -1, 0, 19
1503963548728,-15, -4, -2, 2, -1, 1, 1, 2
1503963548736,-2, 2, -2, 0, -4, -1, 1, -4
1503963548743,-4, 4, 7, -3, 2, -2, -1, -5
1503963548760,-4, 1, 2, 2, -3, 1, 5, -12
1503963548765,2, 0, 0, -3, 0, -1, 3, 13
1503963548781,2, -3, -8, 0, -1, -1, 1, -4
1503963548788,8, 1, 14, 27, 0, -1, 0, -7
1503963548796,-11, -7, -4, -6, -2, 0, -12, -17
1503963548811,2, -7, -10, -10, -2, 0, 3, -1
1503963548820,3, 3, 5, 4, -2, 1, -3, 16
1503963548826,14, 14, 6, -3, 0, 7, 5, 7
1503963548841,-5, 3, 0, 0, 2, 7, -1, -12
1503963548848,3, -5, -3, -3, -1, -6, -6, 3
1503963548857,14, 5, 2, -5, -5, -7, -1, 6
1503963548871,-35, -19, -15, -14, -5, -4, -8, -18
1503963548879,-1, 0, 10, 24, 4, 2, 1, 0
1503963548886,-4, -7, -5, -1, 3, 0, 2, -3
1503963548901,-2, 0, -5, -8, 1, 2, 10, 0
1503963548908,-5, 1, 6, -1, 3, 1, 2, -8
1503963548918,14, 1, 0, 0, 1, 3, 4, 5
1503963548931,-5, -2, -6, -4, -4, -2, -13, 3
1503963548938,-6, -1, 2, -4, -5, -3, -5, 3
1503963548945,13, 1, 0, -1, -3, 2, 2, 8
1503963548961,-4, -2, 1, -4, 0, -2, -5, -2
1503963548968,-14, 1, 1, 2, 0, -2, 4, 1
1503963548976,-2, -5, -8, -7, -1, -4, -3, -1
1503963548991,10, 5, 9, 5, 0, -1, 0, 4
1503963548998,7, -2, -5, -3, 0, 0, 2, -1
1503963549005,-9, -11, -7, -2, -1, -2, -1, -3
1503963549021,2, -2, -5, -1, -4, -1, -1, -2
1503963549028,1, 3, 0, -2, -2, -2, 0, 5
1503963549036,10, 3, -2, 1, 0, -2, 4, 7
1503963549053,-16, -14, 3, 1, -2, -1, -1, -12
1503963549058,-24, -2, -1, -4, 0, -1, 1, 10
1503963549066,0, 2, 0, 0, -2, -1, -11, -15
1503963549080,-5, -3, -8, -2, 1, 0, 2, -2
1503963549088,0, 5, 2, -2, 2, 1, 3, 7
1503963549096,0, -1, -2, -1, 0, 0, -4, -2
1503963549110,12, 14, 8, 4, 2, 0, 1, -8
1503963549121,-27, -1, 1, -1, 0, -1, -5, -16
1503963549126,6, 36, 3, -3, -1, 0, -2, 4
1503963549140,-19, -12, -3, 1, -1, 0, 0, -7
1503963549141,11, 1, 2, 1, -2, 0, -2, 7
1503963549148,2, -12, -9, 2, 1, 0, 4, 6
1503963549156,-1, 1, 3, 1, -2, -1, -1, 1
1503963549171,7, 5, -3, -6, -3, -3, -4, 2
1503963549179,9, -9, 0, -1, -1, -2, 2, -5
1503963549187,-14, -5, -5, -1, -2, -1, -1, 1
1503963549201,2, -7, -14, -1, -1, -2, -1, -3
1503963549208,0, -5, 0, -3, -1, -3, -3, -16
1503963549216,4, -8, -3, -2, 0, -1, -5, -6
1503963549230,4, -3, -1, 6, -2, 0, 9, 9
1503963549238,9, 9, 2, -1, 0, -2, -19, -7
1503963549246,-2, -13, -1, -2, -2, 0, -9, -12
1503963549260,-8, 4, 5, 2, -2, 0, 2, 12
1503963549268,4, -1, -9, -2, 0, -1, -2, 1
1503963549276,-7, 3, 7, 1, -1, -2, 2, -13
1503963549291,-4, 0, 2, 2, 1, 2, 9, 10
1503963549299,-7, -5, -4, -3, 0, -1, -2, -5
1503963549305,4, -4, -3, -5, -1, -2, -2, -5
1503963549322,15, -13, -2, -5, -2, -1, -2, 15
1503963549328,0, 5, 4, 1, -1, -1, 1, 1
1503963549336,5, 7, -4, 0, -3, -2, 5, 5
1503963549350,0, 8, 7, 4, 1, 1, -1, -1
1503963549359,-1, 2, 3, 0, 1, 0, 2, -1
1503963549365,-3, 1, -3, 1, 0, 1, -2, -7
1503963549366,-2, -6, -5, -2, -1, -1, 0, 1
1503963549380,1, -4, 6, 1, 1, 1, 0, -1
1503963549389,-2, -4, 1, -4, 0, -3, -16, -13
1503963549397,3, -1, -3, 5, -2, -4, -2, 3
1503963549412,9, 2, 1, 0, 1, 1, 7, 12
1503963549428,2, 4, -3, -3, 0, -1, 3, 1
1503963549429,9, -2, 1, 2, 1, 2, 7, 12
1503963549441,-1, 6, 4, 0, -1, 1, -6, -14
1503963549448,3, 7, -1, -5, -2, 1, -1, 4
1503963549456,-35, 10, 2, -2, 0, -2, -5, -10
1503963549470,-8, -6, -3, -5, -2, -2, -3, -1
1503963549471,-2, -5, -3, 0, 0, -2, -2, 3
1503963549479,-6, -4, -4, -2, 0, 1, 2, -2
1503963549485,-3, -1, -2, 0, -4, -2, 1, 0
1503963549501,1, -4, 0, -3, 0, -1, 3, -9
1503963549508,4, -5, -4, 0, -1, -2, 2, -9
1503963549516,-8, 4, 12, 3, -1, -1, -6, -5
1503963549535,1, -1, -2, -6, -3, -2, -1, -2
1503963549538,3, 4, -3, 2, -1, 1, 0, 11
1503963549547,-5, 1, 2, 3, 0, -3, -4, -2
1503963549560,9, -2, -3, -4, -2, -3, 0, 5
1503963549568,-4, -1, -5, -3, -1, 2, -2, 3
1503963549576,-9, -5, -3, 1, -3, -3, 1, -1
1503963549590,0, -3, 0, 0, -1, -2, -14, -1
1503963549591,-7, -2, 1, -1, 0, -2, 0, -4
1503963549598,3, -3, -5, -1, -2, -2, -6, 3
1503963549605,-2, 7, 6, 1, -2, -2, -3, -8
1503963549620,2, -1, 0, -3, 0, 0, 3, 7
1503963549629,6, -9, -7, -1, 0, 2, 1, 2
1503963549636,-7, -8, 1, 1, -1, -2, -6, -16
1503963549650,-3, 0, -1, -1, 0, -3, -3, 4
1503963549659,13, 0, 0, 0, -1, 2, 2, 10
1503963549666,0, -9, -5, -1, -1, -1, 0, -3
1503963549681,1, -3, -4, 0, 1, -1, -7, -5
1503963549688,-2, 0, 1, -2, -1, -1, 0, 5
1503963549696,3, -2, 1, 0, 0, 2, 5, 9
1503963549714,8, 5, 0, -3, 0, 2, 3, 9
1503963549718,-1, 0, 1, -3, -1, 1, 3, -2
1503963549733,-5, 15, 6, -1, 1, -2, -1, -2
1503963549741,4, -2, -7, -3, 1, -1, 1, 2
1503963549748,-5, -16, 2, 0, -2, -1, 0, -6
1503963549763,5, 2, 1, 1, -1, -1, -12, -2
1503963549772,-4, -1, -6, -3, -3, 0, -7, -8
1503963549780,1, -2, -1, 3, -2, -1, 14, 0
1503963549793,0, -3, -3, 3, -1, -1, -1, -5
1503963549804,12, -1, -3, -1, -1, -1, 6, 6
1503963549805,-3, 4, -4, -2, 1, -2, 2, 5
1503963549808,-5, 4, 2, -2, -3, -2, 4, 6
1503963549824,2, -3, -15, -4, -2, -3, -3, -1
1503963549830,-10, 3, 0, -2, -2, -2, -4, -6
1503963549838,-6, 4, 2, -1, 2, -4, -5, -6
1503963549853,11, 1, -2, 1, -1, 0, 2, 11
1503963549861,-5, -7, -3, -1, -1, 0, -2, -10
1503963549868,-4, -1, 1, -1, 1, 1, 0, -4
1503963549883,-1, 0, 2, -1, -1, 0, 1, 1
1503963549892,1, -4, -1, 1, 0, -1, -20, 8
1503963549898,-6, -3, 1, 0, -2, -3, -7, -5
1503963549913,14, 7, 2, 2, 2, 2, 9, 21
1503963549921,-23, 10, 8, -2, -2, -2, -3, -13
1503963549928,0, 2, -2, -3, -2, 0, -7, -8
1503963549943,1, 4, 3, 1, -2, 2, -3, -1
1503963549951,2, -5, -5, -3, 0, 1, 4, -1
1503963549959,-6, -2, 1, 0, 1, -3, 1, -2
1503963549960,4, 0, 2, 1, 2, 0, -1, 1
1503963549973,-1, -2, -4, 0, -2, -1, 3, -8
1503963549981,12, 3, -2, 0, -1, 0, 0, 3
1503963549988,-14, -8, -2, 2, 2, -2, -5, -19
1503963550003,-7, 1, 6, 1, 0, 0, -1, 1
1503963550010,-15, -5, -1, 2, -2, -1, -3, 1
1503963550018,18, 11, -4, -2, 0, 0, 4, 9
1503963550033,2, -2, -1, -3, -3, -2, 1, -4
1503963550041,-9, -10, -5, -1, -5, -2, -4, -3
1503963550048,5, -1, -1, 0, -2, 0, 3, 4
1503963550063,-2, -7, -5, -3, -1, -4, -3, -5
1503963550070,4, 9, 0, 0, 0, -2, -8, 3
1503963550078,5, -9, -4, 0, 0, -1, 4, -5
1503963550093,-8, -3, 2, 0, 0, -2, -1, -10
1503963550101,-3, -9, -3, 0, -1, 1, 0, -7
1503963550108,-7, 1, -5, -3, -1, -4, -3, -9
1503963550123,2, -3, -2, 0, 0, 0, 2, -1
1503963550136,2, 2, 2, -1, 0, 0, -12, 2
1503963550138,2, 0, 3, 0, 0, 0, 0, 4
1503963550153,3, -5, 0, 0, 0, -2, 8, -1
1503963550161,2, -1, -1, -1, -1, -1, -8, -11
1503963550168,-13, -19, -6, -3, -1, 0, 3, -2
1503963550183,-6, 0, 3, 0, -4, 0, 0, 9
1503963550190,5, 9, 1, -1, 0, -1, -10, -4
1503963550199,-4, 0, -5, -3, 0, -1, 3, 7
1503963550213,-1, 2, 4, 1, 0, 1, 6, -2
1503963550221,1, 2, 2, 0, 0, -2, 0, 3
1503963550229,4, 5, 1, 0, -1, -1, 3, 4
1503963550243,-19, -16, -6, -2, -3, -1, 1, -2
1503963550250,-6, -2, -1, -3, -1, -3, -4, -8
1503963550258,8, 1, -2, -1, -1, 0, -4, 4
1503963550273,-1, -2, 0, -1, -3, 2, 4, 3
1503963550281,8, 11, 4, 1, -1, 0, 5, 4
1503963550288,-1, 2, 4, 4, 0, -1, 8, 4
1503963550303,0, -4, -1, -2, 0, -1, -4, -11
1503963550310,4, 3, -4, -2, 0, 2, 7, 6
1503963550319,6, -2, 3, -1, 1, -2, -19, -1
1503963550333,4, -19, -6, 0, -3, -3, -5, -6
1503963550341,14, 11, 1, -1, 0, -1, 2, 4
1503963550348,0, 3, 0, -1, -1, -1, 0, 4
1503963550363,-8, 3, 2, 2, -1, -3, -2, -5
1503963550370,2, 3, -3, -4, -3, -2, -2, -5
1503963550378,-5, -1, -1, -2, 0, 0, 2, -2
1503963550395,0, -2, 0, 1, -1, 1, -1, -1
1503963550401,2, -2, 1, -2, -2, 0, 1, 2
1503963550408,-7, -9, 0, 0, 0, -2, -5, -1
1503963550423,-17, -7, -3, 3, -1, -1, 0, -19
1503963550430,7, 3, -2, -2, -2, -3, 0, 8
1503963550438,-4, 0, -1, -1, -2, 1, 2, 3
1503963550453,-2, 0, -1, -2, 0, 0, 0, -7
1503963550463,-6, 6, 2, 2, 1, 0, 1, 2
1503963550468,8, -7, -4, 1, -1, 0, -1, -1
1503963550483,5, -5, -5, -3, -1, -1, -8, 8
1503963550490,-4, 5, 10, 4, 2, -2, -2, -8
1503963550499,2, 11, 7, 2, 1, 2, 10, 9
1503963550513,4, -1, -3, -1, -1, 0, -5, 2
1503963550521,-10, -3, -1, -1, -2, -1, -3, -5
1503963550529,0, 1, -1, 1, -2, -1, 1, 1
1503963550543,-5, -2, -7, -2, -2, -2, 0, -4
1503963550550,-11, -4, -4, -2, -1, 1, 0, -3
1503963550558,-2, 0, 0, -2, -1, -2, -2, -1
1503963550573,-19, -2, -2, -1, -2, -3, -6, -6
1503963550581,2, 1, -1, 0, 1, 1, 1, 1
1503963550588,8, 3, -3, -3, -2, -2, 0, 4
1503963550603,0, -6, -9, 0, -2, -1, 0, 0
1503963550610,-3, 5, 1, 1, 1, -1, 0, -7
1503963550618,-2, -5, 0, -3, -1, -3, -13, -10
1503963550633,1, -2, -3, -3, -1, -1, -2, 0
1503963550641,0, -3, -1, -2, 0, 0, 2, -1
1503963550648,-1, 10, 6, 0, -1, 1, -1, -4
1503963550664,7, -4, 0, -1, -2, 0, -3, -5
1503963550670,6, -2, 0, -1, 2, 1, 2, 6
1503963550685,4, -5, 0, 0, -3, -1, 2, 1
1503963550700,2, -5, -3, -4, -1, -3, -2, -6
1503963550701,-1, 2, -4, -3, 3, -1, -3, 4
1503963550715,4, 10, 13, 4, 1, 1, -5, -2
1503963550723,0, 3, 1, -2, -3, 0, 1, 9
1503963550731,2, -5, -7, -2, -2, 0, 1, 4
1503963550745,-7, 2, -2, -1, -1, -1, 4, 1
1503963550753,-12, -11, -3, 0, 1, -3, 0, -3
1503963550761,8, 1, -2, -2, -1, 0, 0, 1
1503963550775,-1, -3, -4, -2, 0, -1, 0, -2
1503963550783,-8, -10, -1, 0, 0, -1, -1, -5
1503963550790,-3, 1, -3, -2, -3, -2, -1, -4
1503963550805,7, -1, -1, 1, -1, 1, 2, 0
1503963550813,-2, 7, 1, -1, -2, -3, -1, 0
1503963550821,-4, 13, 5, 1, -1, -1, -10, -4
1503963550835,2, -6, -3, 1, 0, 0, 2, -12
1503963550843,1, 1, 4, 2, 0, -2, -19, -7
1503963550850,4, 4, 2, 0, 0, -1, -4, -1
1503963550865,1, -5, -5, -1, 0, 1, 8, 7
1503963550873,-9, -4, -3, -2, -1, 1, 3, 3
1503963550881,7, 0, -2, -2, -2, -1, -3, 2
1503963550895,5, -7, -2, 0, -3, -3, -7, 4
1503963550903,-10, 3, 4, -2, 1, -3, 4, -7
1503963550910,2, -3, -2, -1, 0, 1, 1, 7
1503963550925,0, -3, -1, -2, -1, -2, 4, 1
1503963550933,-1, 3, -1, 0, -3, -1, 1, -1
1503963550941,-15, -4, -6, -1, -2, 0, 4, -10
1503963550954,-9, 4, 2, -3, -2, -2, -2, -4
1503963550955,7, 0, -3, -2, -2, -2, -1, 1
1503963550963,6, -1, -1, 0, -2, 0, 0, 0
1503963550970,-2, 0, 1, -3, 0, 2, 1, 0
1503963550985,0, -12, -1, -3, -2, -1, -5, 1
1503963550993,1, 9, 3, 0, -3, -2, 1, 1
1503963551001,1, 3, 2, 1, 3, 0, 3, 3
1503963551015,-3, -2, 2, 3, 2, 0, -13, -11
1503963551023,15, 4, -3, -1, -1, 0, 4, 6
1503963551033,0, -3, -1, -1, 1, 2, 7, -1
1503963551045,-12, -5, -3, 1, 1, 0, -2, -5
1503963551053,0, -9, -3, 0, -3, 0, 1, 1
1503963551061,5, -3, 1, -1, -1, 0, 2, 2
1503963551075,-12, -3, -1, -2, -1, -3, -1, -8
1503963551083,-2, -10, -7, -2, -2, -2, 0, -13
1503963551090,7, 7, 3, -1, 2, 0, 2, 11
1503963551105,-4, 0, 1, 1, -1, -1, 1, -6
1503963551113,-18, -5, -4, -2, -3, -2, -5, -10
1503963551121,1, 2, 2, 1, 0, 1, 5, 17
1503963551136,7, 7, -3, -4, -2, -3, -6, 6
1503963551143,4, 2, -2, -2, -2, -1, -6, -4
1503963551150,-11, -1, -3, -1, -2, 0, 0, -6
1503963551167,2, 1, 2, -1, 0, 0, -3, 0
1503963551173,-3, -34, -12, -3, 0, -1, 5, 0
1503963551181,7, 0, -2, 1, 1, -1, 3, -2
1503963551194,5, 12, 3, 1, -2, 0, -1, 1
1503963551203,2, 3, 3, 1, -3, -1, 1, 4
1503963551210,6, 5, 1, 1, 2, 0, -4, -2
1503963551225,2, 1, -3, -2, 0, 0, 0, 2
1503963551234,-18, -1, 2, -2, 0, -3, -3, -7
1503963551241,-12, -6, -4, -5, -3, -5, -10, -5
1503963551255,8, 1, -2, 0, 0, 3, 4, 14
1503963551263,-7, 0, 1, 1, -1, 0, -2, -5
1503963551270,-1, -4, -4, 1, -1, -2, 2, -1
1503963551285,-5, 6, 3, -2, -1, 1, -3, 3
1503963551293,15, 6, 5, 2, -2, 0, -11, 3
1503963551302,-3, 2, -2, -1, 0, -3, -2, 2
1503963551322,5, -1, 0, -3, -2, -1, 1, -1
1503963551324,-8, 0, -1, -1, -2, 1, 2, -9
1503963551330,7, 1, -3, -2, 2, -2, 0, -1
1503963551345,-8, -3, -3, 1, 0, -1, 2, -2
1503963551353,-13, -2, -3, -1, 0, -1, 2, -2
1503963551361,-1, -4, 1, -1, -2, -2, -5, -15
1503963551375,-9, 7, 0, 0, -3, -1, 3, 1
1503963551383,3, -9, -6, 0, -1, 3, 7, 6
1503963551390,10, -6, -6, -3, -2, -1, -2, 3
1503963551406,0, 0, -1, 1, -1, -1, -5, -2
1503963551413,4, -2, -3, -3, -3, -2, 4, -4
1503963551421,-2, -1, -1, -2, -1, -3, -9, -11
1503963551436,-2, 0, -3, -1, -2, -2, -1, 12
1503963551437,3, -2, 4, 0, -1, -1, -1, -5
1503963551443,-1, -13, -1, 1, 0, 0, 1, 5
1503963551450,0, -1, 0, -3, -1, -1, -1, -1
1503963551465,-11, -1, -3, -2, -3, -3, -4, -10
1503963551473,-11, 2, -1, 2, 1, 0, 1, -6
1503963551481,4, 4, -1, -2, -2, 0, -3, -1
1503963551494,0, -1, -3, -1, 1, 0, 0, -2
1503963551495,-2, -5, 3, -1, 0, -1, -1, 0
1503963551504,13, 1, -2, -1, 1, 1, 4, 5
1503963551510,9, 4, -2, -1, -2, 1, -1, 3
1503963551532,-18, 1, 1, 2, -1, -1, 4, -1
1503963551533,-12, 3, -2, 0, -1, -1, -6, -7
1503963551548,-1, 0, 2, -3, 0, -2, 1, -4
1503963551554,12, -2, -2, -2, 1, -2, 3, 4
1503963551563,0, -2, -2, -1, -4, -1, 0, 3
1503963551570,-4, 2, 1, 0, -4, 1, 3, 9
1503963551585,11, 2, -1, -2, -1, -1, -4, 4
1503963551593,-6, -2, -1, -3, -1, -2, 1, 4
1503963551608,8, 6, 0, 0, 1, -1, 4, 3
1503963551614,5, 1, 2, 0, 0, 0, -6, 2
1503963551615,-6, 1, -2, -1, 0, -2, 1, 10
1503963551623,13, -9, -3, -1, -2, 1, 0, 6
1503963551638,-2, 1, 2, 0, 1, 0, 3, 4
1503963551647,4, 2, 0, 3, 1, 1, -1, -5
1503963551653,-8, -6, -1, 1, 1, 0, -2, -19
1503963551668,-8, 1, -3, -2, -1, -1, -1, 3
1503963551675,3, 2, -1, 1, -1, -1, -1, 2
1503963551683,-19, -4, -3, -2, 0, -2, -2, -10
1503963551697,7, -4, -2, -1, -2, -3, -5, 1
1503963551705,11, 1, 0, -1, 1, 0, -6, 7
1503963551713,7, 0, -1, -1, -2, 2, -2, -13
1503963551728,-18, -3, -2, 1, -4, 0, 1, 7
1503963551734,-2, 1, -2, -1, 0, -1, 4, -2
1503963551743,9, -6, 6, 1, 0, -1, -4, -10
1503963551757,1, -1, -2, 0, -2, -2, -1, 0
1503963551765,-4, 4, -6, -2, 0, -3, -2, 1
1503963551773,-2, -3, 0, -1, -1, 0, 0, 4
1503963551788,12, 2, -1, -1, 1, 0, -1, 0
1503963551795,-5, -9, 0, -2, 0, -3, -3, -5
1503963551803,6, 1, 2, -1, -2, -1, -2, 2
1503963551817,-8, 5, -1, 0, -1, 1, -4, 3
1503963551825,1, -5, -3, -1, -3, -5, -16, -5
1503963551833,-2, 1, -1, 1, -1, 0, 0, 5
1503963551848,-21, 3, 5, -3, 1, -1, 3, -26
1503963551855,10, -4, 1, 1, -1, 1, 5, -2
1503963551863,14, 4, 0, -2, -3, 0, -2, 4
1503963551878,-3, 11, 7, -1, -2, -2, -1, -2
1503963551886,8, -3, -1, -1, 0, 2, 3, -11
1503963551893,-24, -3, -5, -1, 0, 1, 2, -4
1503963551894,9, 0, -3, -1, 0, 1, -5, 4
1503963551908,-5, -1, 2, 1, 1, 0, 8, 3
1503963551915,-23, -8, -4, -3, -3, -5, -10, -18
1503963551923,6, -6, -4, -1, 1, -1, 2, -3
1503963551941,-3, -9, -3, -4, 0, -2, -1, -17
1503963551945,-4, 9, -3, 2, -3, -3, -6, 2
1503963551953,6, 1, 0, -1, 0, 1, 0, 9
1503963551968,12, 0, 7, 1, 1, 1, 6, 9
1503963551982,-1, -5, -2, -1, -2, -1, -4, 4
1503963551984,-5, -10, -5, -1, 1, -1, -2, 4
1503963551997,10, -7, -8, -1, -1, 2, 7, 8
1503963552008,3, 0, -5, -1, -1, -2, -2, 5
1503963552013,1, -1, -2, 0, -1, -1, 2, 6
1503963552028,1, -2, -1, -1, -1, 0, 2, 1
1503963552034,-7, -4, 2, -3, -2, 0, -5, -8
1503963552043,-4, 3, -2, -3, -3, -3, 1, -1
1503963552057,1, 8, 3, 3, 0, 0, -2, -5
1503963552065,-5, -2, 0, -1, 1, 0, 1, -8
1503963552074,15, 2, 1, 0, -1, -2, -2, -7
1503963552088,-14, -4, -5, -3, -2, -1, 2, 11
1503963552094,6, -8, 0, 1, 3, -1, -3, -5
1503963552103,-7, 2, -1, 0, -1, 1, -2, 1
1503963552117,7, 3, 0, 0, -3, 0, -8, 3
1503963552125,-6, 2, -1, -1, 0, 0, -1, -1
1503963552133,-10, 0, -3, -2, 2, -2, 6, -11
1503963552148,-8, -3, 2, 3, -1, 2, -8, -2
1503963552154,-6, 4, -2, -2, -2, -1, 1, 4
1503963552163,13, 4, 1, 0, -2, -1, -5, -3
1503963552177,-48, -11, -2, -6, 0, -4, -5, -13
1503963552185,2, 1, 1, -1, -2, -1, 1, 7
1503963552193,22, 1, -1, 0, 1, -2, 0, 14
1503963552208,9, -10, -3, -2, -1, -4, 2, -2
1503963552214,5, -5, -4, -1, 0, -1, 6, 4
1503963552223,2, 6, -1, -1, -3, -2, 2, 2
1503963552237,-2, 0, 0, -1, -2, 3, 2, 13
1503963552246,-10, -1, 0, 0, 0, 1, 3, -1
1503963552253,9, 5, 6, 0, 2, 1, 1, 5
1503963552268,-8, -1, -3, -3, -3, -2, -1, -4
1503963552275,-5, 3, 4, 1, -2, -2, -4, -6
1503963552283,-15, 8, -4, -2, -1, 0, 1, -4
1503963552297,-12, 0, -6, -1, -1, -4, -13, -14
1503963552305,5, -2, 0, -2, 1, 0, -5, -7
1503963552313,-3, 1, 1, -1, -2, -1, -1, 5
1503963552328,1, -4, -1, 0, 0, 2, 0, 5
1503963552334,2, -5, 0, 1, -1, 3, -1, 0
1503963552343,-5, -5, -1, -1, 0, 0, 4, 0
1503963552357,-7, 3, 2, 0, 0, -1, -2, 1
1503963552365,21, -10, -2, -1, -1, 1, 2, 7
1503963552373,-24, -4, -2, 0, 1, 0, -2, -9
1503963552388,6, 0, 1, 0, -1, -2, -5, 11
1503963552394,7, 10, 1, -1, -4, 1, 6, 2
1503963552403,10, 6, 5, 2, 1, 0, 0, -2
1503963552418,-3, -11, -1, 0, -1, -1, 1, 0
1503963552425,-3, -10, -5, -3, -1, -1, 0, -6
1503963552433,4, 6, -1, 0, -1, -1, 0, 4
1503963552449,-5, 4, 0, 1, 0, -2, -5, -3
1503963552455,11, 0, -3, -1, -1, 1, 1, 8
1503963552463,-11, -2, 0, 0, 0, 1, -2, -11
1503963552478,11, 0, -2, -1, 2, 0, -2, 1
1503963552485,-1, 5, 1, 0, -1, 0, -3, -7
1503963552493,5, 3, 4, -1, 0, -1, 3, -3
1503963552511,-11, 1, 0, -3, -4, -3, -4, -8
1503963552515,-2, 1, -5, -1, -2, -3, 3, -2
1503963552530,0, 12, 11, 1, 0, -1, 4, 0
1503963552537,9, -4, -2, -1, -2, -2, -6, -8
1503963552546,7, -7, -5, -2, -1, 0, 0, 17
1503963552560,3, 4, 1, -1, -1, -2, -1, -3
1503963552568,-4, -3, -2, -1, -3, -2, 0, 0
1503963552574,-13, -6, -5, -2, 0, -1, -3, -7
1503963552590,3, -2, -2, -2, 0, 1, -1, -5
1503963552597,-7, -4, -6, -3, -3, -1, 3, 7
1503963552605,3, 3, 2, 0, 1, -1, -6, -7
1503963552620,-5, -8, 1, 0, 2, 3, -5, 4
1503963552628,15, -5, -4, -2, -2, -1, 2, 4
1503963552634,4, -5, -3, -1, -4, 0, -2, -5
1503963552650,2, 2, 0, 2, 1, 0, 0, 2
1503963552657,0, -1, 3, 0, 2, 0, 0, 2
1503963552665,-11, -3, -2, -2, -1, -4, 0, -24
1503963552680,-3, 2, 0, -1, -3, -1, 3, -5
1503963552688,7, 2, -6, -2, -2, 0, 0, 3
1503963552694,21, 1, 0, 1, -1, 0, -8, 6
1503963552712,-11, -4, -2, -4, -2, 0, -2, 0
1503963552717,19, 1, 1, 0, 2, 0, -1, 4
1503963552725,-6, 1, 8, 1, 1, 1, 1, 0
1503963552739,-8, -7, -4, -4, -3, -4, -1, -3
1503963552748,1, 0, -4, 0, -1, -2, -4, 6
1503963552754,-1, 6, 1, -1, 0, 0, 1, 0
1503963552770,0, 3, 0, -1, -1, -3, -4, -6
1503963552779,-4, -2, -2, 1, 2, 0, 11, -3
1503963552785,5, 0, 0, -3, 1, 0, -10, 7
1503963552786,-6, -5, -2, -1, -2, -4, -6, -16
1503963552800,10, 2, 2, -1, -3, -1, 2, 5
1503963552808,-29, -6, -4, -2, 1, 2, 3, -9
1503963552815,-17, 0, -1, -1, 0, 1, -5, -3
1503963552830,15, -2, 2, 3, 1, 0, 1, 16
1503963552837,-5, -2, -5, -3, -1, -2, -4, -5
1503963552846,-2, -1, 2, 0, -2, -2, -1, -4
1503963552860,4, -3, 0, -1, -1, 0, -1, 4
1503963552868,10, 1, -2, -2, -3, -2, -4, -11
1503963552874,-8, -5, 0, 1, -1, -1, -2, -3
1503963552875,13, 6, 1, -2, -2, 1, 1, 7
1503963552890,4, -3, 0, 1, 0, -2, -2, 7
1503963552897,-14, -3, 2, 0, 0, -1, 1, -4
1503963552906,-29, -8, -4, -1, 0, 2, 1, -9
1503963552920,-6, -12, -6, -3, -1, -2, 0, -4
1503963552928,15, 1, -2, -2, 0, 0, 7, 17
1503963552934,0, -5, -4, -1, 1, -1, -1, -4
1503963552951,-14, -7, -5, -1, -1, 1, -5, -6
1503963552958,-17, 0, 1, 0, -2, 1, -2, 7
1503963552965,1, -1, -3, -2, -3, -2, -1, 2
1503963552981,2, -5, -3, 0, -2, -2, -4, -5
1503963552989,10, -2, -1, -2, 0, 1, 1, 4
1503963553003,-2, -1, -3, -2, 0, -2, -2, 2
1503963553010,-2, 6, 1, 0, 0, -3, 2, 5
1503963553018,-9, 4, 2, -1, -2, -1, 1, -2
1503963553025,-29, -2, 0, 1, -2, -1, -3, -7
1503963553041,14, 9, 2, 1, -1, 0, 0, -4
1503963553048,9, 1, 3, 1, 0, -2, 0, 3
1503963553063,-11, 1, 6, 2, 0, -1, -2, -12
1503963553070,22, 2, 0, -1, 1, 0, -11, 1
1503963553080,-5, -7, -1, -2, -2, -1, -3, -2
1503963553085,8, 0, -1, -1, -1, -2, 2, 4
1503963553101,-28, -5, -4, -2, -3, -3, -5, -11
1503963553108,-10, -1, 3, -1, -3, -1, -2, -12
1503963553124,12, 7, 2, -1, 1, 0, -1, 7
1503963553131,-5, -6, -3, 0, 1, -2, -4, 0
1503963553132,-2, -1, 0, 2, -2, -1, 2, 2
1503963553139,4, -1, -6, -2, 0, 0, -2, 0
1503963553145,5, 0, -1, 0, -1, -1, 0, 0
1503963553161,-8, 0, 0, -1, 1, -1, -4, -1
1503963553168,8, -3, -6, -3, -1, 0, 2, 0
1503963553183,8, 4, -1, 0, 1, -1, 5, 4
1503963553191,1, 0, 2, 1, 0, -1, -4, -1
1503963553198,-1, -1, -3, -2, -1, -2, -2, -3
1503963553205,5, -9, -6, -5, 0, -1, -1, -1
1503963553221,-1, -3, 1, 1, -1, -2, -1, -2
1503963553228,1, 0, -1, -1, -1, -1, 1, -8
1503963553243,7, -1, -2, -1, -2, -1, -4, -3
1503963553250,-9, 4, 1, 1, 2, -1, -4, 1
1503963553265,-1, -4, -2, 1, -2, 1, 1, 1
1503963553266,-5, -6, 1, 1, 1, 2, 5, 2
1503963553283,-3, -8, -1, -1, -2, 0, -5, 0
1503963553288,-13, -6, -5, -1, -2, -1, -4, -1
1503963553303,9, 3, 1, 1, -3, -1, 6, 6
1503963553310,-23, 0, 2, 5, 0, 1, 1, -4
1503963553318,-14, 0, -1, -4, -4, -1, -1, 0
1503963553326,12, 3, -1, -2, 0, -2, 1, -1
1503963553341,-13, 2, 1, 0, 0, -2, -1, -11
1503963553350,-3, 1, 2, -3, -1, -3, -4, 0
1503963553363,-1, -5, -3, -3, -1, -3, -5, -8
1503963553370,2, 19, 10, 0, -1, 0, 5, 0
1503963553379,-3, 3, -5, -2, 1, 0, -8, 0
1503963553386,2, 1, -4, -5, -4, 0, -1, -2
1503963553401,8, 2, 1, -5, -3, -1, 0, 1
1503963553409,-2, -4, 6, 14, 3, -1, -3, -4
1503963553424,1, -3, -2, 1, 0, 1, 4, 2
1503963553430,6, -3, -8, -3, -5, -2, 2, -4
1503963553438,6, -3, -2, -1, 1, -1, 2, -2
1503963553445,10, -4, -6, -4, 0, 0, -2, 5
1503963553462,3, -1, 0, -1, -1, -1, -6, -12
1503963553468,1, 5, 1, -2, 0, 0, 0, 3
1503963553486,10, 2, 3, 3, 2, 1, 5, 9
1503963553491,-3, -4, -4, -4, -2, 0, -4, -9
1503963553498,-5, -2, 2, 2, -1, 0, 2, 1
1503963553513,2, 0, -4, -7, 0, -3, -2, -10
1503963553522,3, 2, 5, 13, 4, 0, 4, 3
1503963553528,3, 1, -1, 1, 4, -1, -2, 5
1503963553543,8, 7, 0, -8, -2, -1, -4, 5
1503963553551,-7, -10, 0, -2, 1, -1, 3, 3
1503963553559,-6, 1, -5, -3, -4, -2, -12, -9
1503963553573,8, -5, -5, -5, -4, -3, -11, -7
1503963553581,29, -2, 2, 1, 2, 3, 5, 13
1503963553588,-4, 1, 2, 2, -2, 0, 6, 6
1503963553612,-9, -5, 1, 0, 0, 1, 4, -1
1503963553622,-9, 4, 5, 3, 3, -1, 4, -7
1503963553633,-9, -6, -5, -1, -3, -1, 3, 1
1503963553641,10, 1, -2, -4, 1, 0, -7, -1
1503963553648,4, 5, 0, -3, -4, -4, -8, -20
1503963553663,2, -4, -6, -2, -3, -1, 6, 12
1503963553670,11, -1, -1, 1, 1, 1, 3, 9
1503963553678,-3, 4, -4, -2, -1, -2, -16, 5
1503963553679,-15, -12, -1, -2, -1, -1, -7, -10
1503963553694,9, 5, -2, 0, -2, -1, 2, 1
1503963553701,-3, 2, 3, 3, -1, 0, 0, 3
1503963553708,5, -2, 0, -1, 0, 0, -1, 4
1503963553723,-30, -2, -1, -1, 1, -3, -3, 21
1503963553730,-3, -2, -2, 1, -1, -1, -9, -9
1503963553738,4, 2, -2, 0, -5, 0, 3, -23
1503963553754,-4, 2, -4, 3, 14, 0, 0, -3
1503963553761,0, 1, 14, 13, 0, 1, 1, -3
1503963553768,-17, -2, -4, -5, -3, 0, 3, 3
1503963553787,1, 2, -7, -9, -3, -3, -16, -9
1503963553790,-18, 0, 1, 1, -1, -4, -2, -2
1503963553798,-8, -3, -5, -2, -2, 1, 6, -2
1503963553813,4, -4, 0, -3, -4, 1, 1, 2
1503963553821,-4, 0, -5, 1, -3, -1, -2, -5
1503963553829,-16, -1, 9, 3, 0, 0, -3, -1
1503963553843,4, 0, -4, -5, 2, 2, 8, 10
1503963553850,10, 2, -3, -2, -2, -1, -3, 2
1503963553858,-17, -3, -1, -2, 1, -2, -6, -19
1503963553873,-7, -4, -6, -1, -1, -2, -1, 0
1503963553881,19, 3, 0, 4, 0, 1, 5, 11
1503963553889,6, 4, 1, -5, -2, 1, 3, -1
1503963553903,-7, 0, 6, 1, 0, 0, 8, -3
1503963553910,2, -1, 0, -1, -1, 0, -1, 5
1503963553925,-4, -8, -6, -2, 0, -2, 0, 2
1503963553933,3, -2, -4, -6, -2, -2, 4, 0
1503963553941,3, 3, 4, 2, 1, -2, 0, 1
1503963553948,1, -2, -2, 0, -1, -1, -4, 2
1503963553964,13, -3, -7, -1, -2, -3, 0, -4
1503963553970,-18, -5, 1, -4, 1, -2, -7, -18
1503963553978,-28, 0, -1, 1, -1, 0, 2, 18
1503963553979,-15, 0, 2, 3, 1, 5, -3, -5
1503963553994,3, 5, 1, 3, -3, 1, -3, 3
1503963554001,17, 5, 1, -3, -2, 1, 5, 9
1503963554008,9, 0, -1, -1, -2, -5, 0, -1
1503963554023,15, 1, 0, 4, -1, -4, 1, -8
1503963554024,-17, -7, -9, -9, -6, -1, -6, 1
1503963554030,2, 0, 6, 12, 1, -1, 1, 1
1503963554038,14, 5, -4, -1, 0, 1, 1, 2
1503963554061,-6, -4, 0, -5, -3, -1, -14, -8
1503963554068,-7, -8, -5, 2, 0, -1, -2, 5
1503963554083,-2, -1, 0, 3, 0, -5, -2, -4
1503963554090,16, -2, -5, 0, 0, 6, 4, 2
1503963554091,-7, -1, -7, -7, -3, -2, 0, 12
1503963554098,-17, -9, 4, 2, -2, -3, -4, -7
1503963554113,6, 0, -7, 6, 5, 2, 5, 4
1503963554122,-21, -5, -9, -6, -3, -3, -11, -14
1503963554130,12, -3, -2, -6, -2, -4, 1, 5
1503963554143,0, 1, 1, 0, 4, 0, 7, 6
1503963554150,-3, -2, -3, -9, -8, -3, -10, -2
1503963554158,21, 0, -3, 1, -2, 0, 3, -2
1503963554173,4, 3, 7, 1, 1, -11, 4, 14
1503963554181,-5, 3, -1, -2, -1, -3, -6, -10
1503963554189,7, 0, 1, 3, 1, 7, 9, -8
1503963554203,0, -2, -4, -3, -4, -1, 2, 11
1503963554210,-8, 6, 6, 9, -2, 1, 1, -2
1503963554218,4, 4, 2, -2, 3, 5, 6, 0
1503963554233,3, 1, 3, -9, -2, 0, -7, -5
1503963554241,26, 9, 7, 5, -1, -1, 4, 10
1503963554248,-17, -1, -1, -1, -1, 2, -1, -1
1503963554264,-6, 1, -3, -3, 1, -1, 0, -7
1503963554270,-17, -5, -2, -1, -3, 6, 2, -14
1503963554278,-3, -4, -3, -7, -4, -13, 10, 1
1503963554293,17, 1, 3, 1, 2, 1, -1, 10
1503963554301,2, 1, -2, 2, 1, 3, -2, 6
1503963554307,-3, 0, 4, -1, 0, 4, 10, 1
1503963554324,-11, 6, 3, -4, -1, 3, -9, -3
1503963554331,7, 2, 1, 4, 0, -2, -3, 3
1503963554338,5, -4, -2, 0, -3, 0, 0, 3
1503963554353,-11, -6, -6, -4, -4, -3, -8, -6
1503963554361,16, -2, 0, 2, 2, 2, 1, -1
1503963554368,4, 1, -1, 2, 1, -9, 4, -2
1503963554383,-6, -8, -5, 1, -1, -4, 7, 1
1503963554390,2, -3, 3, 0, 2, -2, 3, 2
1503963554391,4, 10, -3, -4, 3, 2, -2, -3
1503963554405,-11, 2, 4, -2, 0, 3, 2, 5
1503963554413,26, -5, -9, 0, -3, -3, -4, -1
1503963554423,4, -10, -12, -10, -2, 2, -7, -9
1503963554435,14, 1, 8, -4, 2, 5, 3, 17
1503963554443,0, 2, -1, -2, -2, 0, 0, -4
1503963554450,-9, -3, -6, -1, -6, -4, 1, -2
1503963554466,2, 10, 1, 1, -3, -4, -9, -2
1503963554473,-2, 3, -1, -2, 1, -3, -5, -1
1503963554481,-12, -3, 5, 7, 4, 8, 1, -6
1503963554495,6, 4, 5, 1, 1, -7, 7, 9
1503963554496,-6, -4, -4, 0, -2, -5, -8, -5
1503963554503,1, -7, -5, -3, -1, 2, 2, 1
1503963554510,-9, -3, -2, -3, 2, 1, 0, -4
1503963554527,-2, 1, -1, 1, -7, -2, 0, 0
1503963554528,-1, 3, -3, -3, -5, -2, -5, 2
1503963554539,22, 6, 0, 14, -1, -3, -5, -7
1503963554541,-16, -8, 1, 5, 4, -3, 7, 15
1503963554558,-7, -5, 5, -7, -5, -3, -16, -38
1503963554564,15, -11, -2, -3, -1, -3, 0, 2
1503963554570,-15, -3, -5, -1, -1, 1, 2, 8
1503963554585,-11, 0, 3, 1, -8, 1, 2, -1
1503963554593,15, 3, -4, -2, -5, 0, 8, -7
1503963554601,12, 5, -4, -1, 1, 3, -5, -8
1503963554615,8, 6, 3, 1, 1, 1, 0, 4
1503963554624,-37, -6, 1, 2, 1, -5, -7, -10
1503963554630,4, 12, 0, -2, 11, 0, 5, 12
1503963554645,-2, -7, -2, 3, 3, -1, -2, 9
1503963554653,0, -8, 1, -5, -5, -5, -9, -29
1503963554663,15, 5, -6, -4, -10, -1, 2, -1
1503963554675,2, -7, 4, 3, -1, 2, 0, 12
1503963554683,-2, 0, 4, -1, -1, 0, 0, 2
1503963554695,-39, -7, -3, -6, 1, -10, 1, -1
1503963554705,8, 1, -1, -1, 0, -5, -5, -4
1503963554713,-9, -11, -8, -4, -3, -3, -28, 0
1503963554721,11, 7, 3, 3, -23, -8, -5, 0
1503963554735,-9, -4, 0, 0, -4, 3, 7, 3
1503963554743,27, 2, 1, -5, 6, -2, -8, -7
1503963554750,-10, 9, 6, 4, -1, 3, 13, 5
1503963554765,-15, -2, -10, 1, 5, 1, 10, -21
1503963554773,-11, 1, -8, -2, 0, 1, 2, 13
1503963554781,-18, 0, -1, -2, 2, 1, 0, 8
1503963554796,6, 4, -3, -5, 0, 3, 4, -1
1503963554803,6, 5, 0, -3, 5, 9, -2, 2
1503963554810,0, -14, -4, -6, -2, 1, 6, 0
1503963554828,-8, -3, 2, -3, 5, -2, -13, -6
1503963554833,7, 4, 1, 5, 0, -1, -2, -12
1503963554841,18, -3, -3, 0, 1, 2, 12, 13
1503963554855,9, -7, 3, 4, 0, -3, 0, 5
1503963554863,7, -2, -3, -3, -3, -1, 5, 2
1503963554870,-4, -5, -8, -1, -3, -2, -13, -9
1503963554885,-16, -30, -2, 0, -2, -4, -7, -12
1503963554894,-4, 9, 0, -3, -3, 1, 2, 7
1503963554900,-2, 4, 4, 0, 0, 3, -2, -6
1503963554915,-8, 4, 4, 1, -4, -2, 0, 1
1503963554923,-8, -3, -7, -4, -1, -4, -6, -2
1503963554930,1, 15, 11, 6, 4, 2, 1, 5
1503963554945,-4, 2, 4, 1, 20, -2, 3, 12
1503963554952,3, -6, -5, -7, -6, -1, 3, 7
1503963554968,4, 6, 1, 4, -1, -2, 2, -34
1503963554975,-1, -1, 0, -1, 4, 1, 2, -3
1503963554983,-68, -7, -2, -4, -7, -1, 0, 0
1503963554990,2, 3, -8, -4, -5, 1, -1, -1
1503963555005,-6, -3, 1, -1, -5, -1, 7, 6
1503963555013,3, -14, -2, -2, -4, -1, -4, -3
1503963555021,25, 5, -3, 0, 0, 1, 2, 13
1503963555036,18, 6, -3, -4, 0, -2, -5, -2
1503963555043,15, 11, 4, -5, -5, -3, -1, 9
1503963555050,-9, -9, -2, 3, 1, 1, 2, 7
1503963555065,-3, 7, 1, -2, 0, -1, -2, 5
1503963555073,-19, -9, -6, 0, 5, -1, -3, -17
1503963555081,20, 2, -4, 2, 21, -9, -2, 6
1503963555096,7, 2, 1, -2, -4, -2, 3, 5
1503963555104,2, 10, 6, 7, -7, 1, -4, 5
1503963555110,-44, -6, -2, 0, 7, 0, -2, -7
1503963555126,-7, -2, -2, 2, 1, -2, 2, 6
1503963555127,20, -2, -2, -4, -2, 0, -3, -5
1503963555133,17, -9, 0, -1, -5, 0, 2, -3
1503963555141,-7, -4, -6, -6, -6, 2, -12, -8
1503963555155,14, 5, 0, 6, -2, -1, -2, -20
1503963555170,3, -4, -1, -1, -7, -3, 1, 0
1503963555172,10, -8, 0, -4, -6, -1, 0, 14
1503963555185,-14, -3, 0, -1, -4, -2, 1, -4
1503963555193,-9, 1, 3, 0, -1, -3, -2, 0
1503963555201,2, -6, -4, -1, -27, -3, 3, 2
1503963555215,5, 8, 5, -6, -1, 1, 1, -4
1503963555223,1, 6, -1, 2, 14, 0, -1, -5
1503963555231,-1, -15, -13, -7, -2, -1, 1, 8
1503963555245,-11, -8, 2, 4, -11, -3, -3, -4
1503963555253,50, 20, -5, -1, 4, 0, -1, -3
1503963555262,15, 0, -6, -5, 0, -8, 0, 9
1503963555275,-8, 7, 5, 2, -1, 0, -2, -20
1503963555283,-23, 3, -3, -3, 13, -1, -2, -2
1503963555290,8, -4, -2, 3, 1, 0, -5, -7
1503963555307,-20, -7, 2, -1, 2, -3, 2, -1
1503963555312,4, -12, -4, -3, 1, 0, 3, 1
1503963555313,4, 8, -4, 2, 1, 3, 3, 9
1503963555330,16, 1, 1, 2, 3, 6, 3, -3
1503963555335,-4, 0, 0, -2, -4, -4, 3, 6
1503963555343,-31, -4, -2, 1, -1, 10, 5, 5
1503963555357,-7, -4, 3, 1, 3, -3, -7, -2
1503963555365,0, 0, 0, 1, -18, -6, -9, -25
1503963555373,-40, -10, -2, -4, 3, -1, -1, -1
1503963555388,-16, -15, -8, -9, 0, -16, -16, 7
1503963555397,6, -2, 0, 1, -2, -2, -6, 2
1503963555403,16, 5, 1, 2, 2, 9, 7, -8
1503963555417,-5, -4, 1, 0, 3, -4, 14, 6
1503963555425,10, 4, 4, -1, 3, 10, -9, 10
1503963555433,-6, -3, -1, -2, -8, -4, 1, -15
1503963555448,39, 2, -1, -1, 3, 5, 16, 23
1503963555455,1, 2, 0, -2, -1, 1, -14, -2
1503963555465,-5, -1, -2, 1, 0, -4, 1, -17
1503963555477,10, 4, 4, 0, 0, 1, 7, 19
1503963555485,13, 3, -3, 1, -2, -5, 0, 3
1503963555493,-69, -11, -5, -2, 0, -2, 10, -11
1503963555508,2, 1, -5, -2, -1, 0, -8, -9
1503963555515,-21, 2, 3, -15, -5, -1, -4, -2
1503963555523,9, -2, 14, 7, 1, 0, 1, 2
1503963555537,22, -7, -10, 0, 3, 11, 19, 12
1503963555545,6, 0, -12, -12, -3, -5, 17, -26
1503963555553,14, 7, 11, 6, 3, 1, -4, 4
1503963555568,-7, -23, -1, -1, -3, -2, -11, -10
1503963555575,10, -1, -4, 1, -3, -3, -3, -3
1503963555583,-17, -3, -5, -9, -5, -4, -6, -15
1503963555605,0, 2, 0, 4, -2, -2, -9, 7
1503963555606,31, 15, 1, 3, 2, 6, 11, 26
1503963555613,16, 1, -1, -1, -1, -4, -3, -7
1503963555628,1, 5, -1, 0, -1, -1, 3, 7
1503963555635,5, 5, -3, -8, 0, -2, -10, -11
1503963555643,0, 33, 23, 18, 2, -5, 19, 4
1503963555657,-1, -12, -11, -6, -27, -6, 4, 8
1503963555666,-3, -5, -5, -7, 3, 1, -14, 5
1503963555674,-7, -8, -1, 1, 10, -14, -4, -29
1503963555688,9, 1, 0, 1, -2, 4, -8, 4
1503963555695,-3, 1, -6, -5, 8, 3, -3, 1
1503963555703,-9, -5, 4, 4, 2, -3, -1, 1
1503963555717,0, 5, 3, 1, -1, 1, -3, 5
1503963555725,-8, -6, -11, -4, -2, -3, -13, -5
1503963555733,-19, -7, 0, 3, 0, -2, -4, 13
1503963555748,-10, -2, -3, -4, 1, 3, -10, -2
1503963555755,5, -4, 1, 5, 0, 1, 1, 3
1503963555763,13, 5, 1, -2, -4, -4, -1, 11
1503963555779,-72, -6, 3, -2, 4, -4, -2, -6
1503963555786,-8, 3, -3, -2, 6, 1, -1, -6
1503963555793,20, -14, -9, 3, 3, 4, -3, 10
1503963555808,19, 0, 5, 1, -2, -4, 0, -11
1503963555822,7, -1, -1, 1, 5, 0, 7, 12
1503963555823,-9, 1, -1, 0, 10, 16, -1, -19
1503963555824,6, -4, -3, -5, -22, -7, 18, 0
1503963555837,24, 12, 7, 2, -4, 2, 6, 12
1503963555845,-14, -1, 0, 1, 6, -4, -13, -7
1503963555852,-1, -2, 1, -1, -4, -6, -22, -5
1503963555868,-3, -11, -4, -2, -8, 1, -30, -12
1503963555875,37, 6, -1, -4, -12, -4, -8, -17
1503963555883,21, 6, 8, 4, 6, 2, 11, 5
1503963555897,13, 9, -3, -2, -2, 0, 5, 12
1503963555905,-4, 2, 2, 1, 3, 1, 17, 8
1503963555912,1, 4, 4, 2, -6, 3, -7, 9
1503963555913,13, 1, -2, -1, 0, -1, 8, -7
1503963555928,-9, -3, -6, -4, 2, -2, -25, 8
1503963555935,1, 5, 3, 1, 0, -3, -4, 8
1503963555943,-16, -4, -8, -3, -5, -1, -9, -9
1503963555957,7, -1, 2, -1, -16, -20, 9, -16
1503963555967,-5, -4, -3, -5, -6, -5, 15, 13
1503963555973,-16, -2, -9, -7, 4, 4, 2, -3
1503963555987,-24, -9, 3, 1, 11, 5, -4, 1
1503963555995,27, 2, 1, -1, 3, -1, 2, 13
1503963556003,11, 5, -3, -4, 4, 4, 7, -7
1503963556017,-11, -4, 8, 6, -2, -3, -4, 1
1503963556025,-16, -1, -2, 1, -1, -7, 0, -14
1503963556035,19, -4, -11, -7, -5, -28, -7, 20
1503963556048,-18, -1, 2, 2, -5, -14, -18, -5
1503963556055,9, 4, -7, -5, 5, 18, 18, 3
1503963556063,4, -13, -5, -8, -31, -26, -14, -25
1503963556078,-14, -7, 2, 1, 5, 2, -17, -5
1503963556085,12, -1, -3, 2, 13, 10, 5, 22
1503963556094,-43, -13, -2, 3, 4, 4, 6, -10
1503963556108,-27, -6, -4, -3, 8, 12, 17, 5
1503963556115,-41, 3, 0, -4, -20, -17, -8, -17
1503963556123,18, 2, -1, 1, -3, 10, 20, 30
1503963556144,-2, 4, 5, 4, 7, 11, -3, -52
1503963556145,-7, -9, -12, -1, 3, 0, 5, -3
1503963556153,22, -1, 1, -2, 12, 10, -26, -38
1503963556169,13, 9, -2, -3, 2, 3, -2, 7
1503963556175,21, 3, -3, -1, 9, 12, 10, 24
1503963556183,-9, 6, 6, 2, -17, -13, -9, -21
1503963556197,59, 13, -1, 0, -2, 2, 9, 49
1503963556205,-15, 2, 6, 1, -39, -3, -4, -2
1503963556213,12, -7, -9, -4, -7, -7, 3, 14
1503963556228,30, -8, 14, 5, 21, 9, 17, 30
1503963556236,30, -2, 5, 3, -4, 2, -11, -37
1503963556250,-34, -2, -8, 0, 10, -2, 3, -31
1503963556257,-74, -9, -9, -3, 2, -6, -21, 15
1503963556265,8, 15, -7, -5, 12, 7, -15, 43
1503963556279,-50, -29, -3, 4, -1, 1, 8, 23
1503963556287,48, 11, 1, 0, -4, -2, -14, -41
1503963556288,3, -21, -6, -6, 2, -3, 16, 55
1503963556295,31, 13, 3, 2, -1, -1, 4, -13
1503963556310,-23, -8, -9, -6, -21, 7, 5, -4
1503963556317,-9, -3, 7, -2, 4, 10, 23, 75
1503963556325,21, 8, 1, 2, -4, -18, -28, -37
1503963556340,1, 5, 1, 2, 23, 3, 19, 36
1503963556348,-3, 9, 12, 3, 7, 17, -2, -18
1503963556355,1, 18, -6, -5, 10, 3, -14, -16
1503963556371,36, 25, 20, 15, 6, 7, 6, -4
1503963556377,-5, 3, -6, -2, 0, 0, -3, -49
1503963556385,-89, -16, -12, -6, -3, -6, -4, -18
1503963556399,1, -4, -4, -5, -17, -8, -17, -84
1503963556408,70, 4, 3, 1, 23, 16, 24, 89
1503963556415,-47, -1, 0, -1, -17, -27, -20, -8
1503963556430,10, -4, -6, -4, 8, -5, -42, -51
1503963556438,-35, -4, 0, 2, -12, -9, -25, -26
1503963556446,-39, -13, 5, 1, -6, -18, 21, 56
1503963556459,59, 56, 5, 6, 11, 16, 42, 42
1503963556468,22, 56, -11, -3, 2, -11, -11, -53
1503963556476,33, -40, -10, -4, -4, 2, 15, 69
1503963556490,-9, 1, 8, 1, 12, 14, 4, -67
1503963556497,-53, 13, 12, 0, 0, 1, -8, 8
1503963556505,13, -4, 2, -2, -6, 9, 1, 16
1503963556519,11, -38, -8, 7, 15, 8, 18, -10
1503963556528,-7, -9, -20, -9, -93, -35, -73, -61
1503963556535,31, -14, -17, -7, -16, -7, 9, -7
1503963556550,8, -16, 1, 1, 13, 5, 6, -16
1503963556557,-14, -58, -5, 10, 2, 0, 8, 5
1503963556565,11, 3, 19, 4, 12, 1, -14, -102
1503963556580,22, 39, 4, -2, 9, -2, 12, 40
1503963556588,-12, -16, -9, -10, 3, -2, 38, 45
1503963556595,32, 21, 9, -3, -10, 4, -9, 48
1503963556610,18, -3, 0, -4, 4, -2, -11, 70
1503963556617,21, -19, -5, -1, 1, 2, -1, 0
1503963556647,12, -6, 30, 4, -25, 2, 28, 70
1503963556648,44, 21, 29, 36, -12, 7, 43, 55
1503963556649,-8, 11, -10, -11, 16, -12, -89, -98
1503963556655,-3, 16, 8, -16, -2, -12, 11, 43
1503963556670,46, 9, -5, 7, 13, 24, 74, 112
1503963556677,-31, 0, -13, -8, 6, -2, -18, -72
1503963556685,-7, -7, -12, -7, 3, -4, -15, -38
1503963556699,-7, 6, 15, -1, -9, -6, -3, -12
1503963556708,4, 7, 5, 9, 23, 17, 23, 23
1503963556715,5, -41, 2, 0, 19, 0, -12, -73
1503963556730,3, 25, -40, -34, -2, 2, 21, 42
1503963556752,-26, -61, -14, 46, 9, -24, -113, -112
1503963556754,-11, 3, -1, 14, 6, -5, 28, 80
1503963556759,-2, 15, -34, -52, -6, 11, 13, 28
1503963556767,27, -13, 10, 10, -4, 0, 9, -10
1503963556775,73, 28, 1, -6, -8, 0, -3, 35
1503963556790,25, 1, 3, 0, 8, 1, 20, -10
1503963556797,-64, 2, 7, 3, -26, -4, 6, -43
1503963556806,-1, -12, -4, -2, 13, -13, -17, -7
1503963556819,-8, 15, 5, -9, -36, 10, 23, 42
1503963556827,-56, -11, 3, 6, -1, -1, -3, -34
1503963556835,-44, -8, 0, -4, 10, -7, -26, -50
1503963556857,3, -16, -10, -11, -5, -5, 2, 34
1503963556859,14, -8, 10, 29, 12, 7, -18, 5
1503963556865,-12, -11, -19, -8, -7, 0, 5, -78
1503963556879,-10, 5, 9, 14, 2, -1, 0, -19
1503963556888,-43, -14, 4, -4, 16, -1, -1, 23
1503963556895,-19, 10, -20, -46, 3, 1, 24, -20
1503963556911,-6, 8, 38, 40, -6, 1, -11, -19
1503963556917,-20, -5, -18, 14, 0, -7, -12, -41
1503963556918,17, 20, 18, -7, 9, 2, 15, 48
1503963556925,37, 18, 0, -15, -8, 0, -5, -7
1503963556942,73, 29, 17, 8, 0, 4, 20, 42
1503963556948,1, -19, -9, 25, 8, -7, -28, -50
1503963556955,4, -1, -21, -25, -3, 1, 7, 37
1503963556970,14, -1, 11, -7, 9, 1, 9, 41
1503963556978,-37, -11, -2, 13, -2, -3, 0, -6
1503963556986,-4, 7, 7, 2, -11, -4, 2, 6
1503963556999,-27, 8, 10, 6, 1, -2, 0, -12
1503963557008,-20, 3, -11, -17, -8, 7, 2, -56
1503963557015,62, -4, -3, 8, 6, 0, 3, 31
1503963557016,-79, -24, -25, -9, 26, 1, -16, -19
1503963557030,11, -7, -2, 54, -5, 2, 8, 42
1503963557038,15, -6, -2, 4, 3, 0, -2, -16
1503963557047,9, -5, -18, -41, -10, -4, -3, 63
1503963557060,32, -10, -15, 0, -3, -1, 8, 37
1503963557068,-25, -2, 17, 41, 5, 1, -7, -28
1503963557077,37, -31, -12, -15, -9, -1, -9, 25
1503963557097,-29, -15, 8, -13, -4, -6, -11, -3
1503963557098,-19, 8, 5, 8, 26, -3, -1, 38
1503963557105,42, 2, -3, 6, -28, 5, 26, 48
1503963557106,-32, 0, -13, -18, 2, 5, -7, -9
1503963557119,-14, -14, 9, -23, -11, -6, 4, -2
1503963557127,35, 16, 12, 7, 0, -3, -10, -25
1503963557135,16, 35, -17, -32, -7, 0, 6, 53
1503963557150,-9, 11, 71, 51, 0, 1, -3, 20
1503963557158,0, -8, -10, 2, -15, -3, 0, -15
1503963557166,-47, -12, -35, -29, -6, -10, 11, 83
1503963557180,13, 5, 9, 7, -7, 1, 5, 75
1503963557188,-16, 2, -15, -15, -16, 3, 4, -16
1503963557202,10, 3, -7, 2, -7, -4, -7, -37
1503963557210,25, 2, -11, -16, 7, 2, 1, -36
1503963557219,10, 9, 6, 16, -5, -7, -13, -100
1503963557233,9, -18, 7, -5, 3, 3, 8, 7
1503963557239,6, 0, -4, 17, 22, 3, 10, -6
1503963557248,-13, 0, -36, -23, -41, -11, -17, -68
1503963557262,-14, -6, 1, 2, -6, -2, -1, -4
1503963557270,-14, -3, -5, -1, 17, 0, -1, -67
1503963557278,-29, 17, 4, -6, -12, 4, -10, -12
1503963557293,-16, 11, 6, -4, 6, -3, -8, 25
1503963557299,-30, -7, -1, 1, -13, -6, -11, 19
1503963557308,12, 11, -4, 0, 3, 0, -6, 7
1503963557322,35, 8, 10, 0, 0, -6, 3, 21
1503963557330,28, -11, -5, -2, 7, 0, -7, 29
1503963557338,-18, 5, 0, -2, 11, 4, -9, -57
1503963557354,14, 22, 27, 8, -36, 8, 6, -28
1503963557359,-37, -24, 8, -4, -15, -4, -1, -40
1503963557368,-35, -3, -15, -9, 14, -3, 15, -22
1503963557382,-1, -2, -4, 2, -7, -6, -7, 33
1503963557390,75, 9, 8, 12, 7, 10, 18, 30
1503963557397,-1, -20, -26, -11, -2, -7, -15, -61
1503963557414,-29, -20, 1, 21, 9, 0, -1, 3
1503963557420,30, -11, -7, -11, -10, -1, 0, 24
1503963557428,5, 8, -11, -4, 7, -4, -10, -17
1503963557442,-5, 11, 10, 4, -2, 6, 20, 48
1503963557450,12, -17, -6, -8, -11, -1, -8, -10
1503963557457,20, 12, -10, 1, 5, 2, 15, -8
1503963557472,5, 5, -9, -12, -1, -5, -17, -5
1503963557479,-70, -20, 9, 20, 15, 3, -14, -88
1503963557488,1, 11, 0, -13, -2, -3, 6, 16
1503963557502,-2, 21, 9, 13, 6, 2, 5, 42
1503963557512,-33, -10, -16, -14, -5, -9, -20, -29
1503963557517,45, 8, 9, 3, -4, 0, 3, -6
1503963557532,-12, -7, 0, -4, -6, 4, 13, 60
1503963557539,34, -19, 6, -4, -4, 3, 12, 39
1503963557552,-8, 8, -7, 4, 15, 8, 13, 17
1503963557562,5, 8, -5, 3, 1, 1, 10, 9
1503963557570,15, -6, -10, 5, 1, -7, -29, -16
1503963557580,19, 3, 3, -4, 2, 0, 3, 4
1503963557593,6, -2, 10, -1, 11, 4, -5, -19
1503963557599,-10, -7, -5, -15, -11, -2, 0, -53
1503963557607,-74, -13, -6, -6, -6, -4, 7, 13
1503963557622,-3, 29, 10, 1, 1, -3, 0, 14
1503963557630,38, 13, -5, 0, -6, -2, 6, -3
1503963557637,-10, 9, 4, 7, 6, 1, -10, 5
1503963557653,21, -10, 7, -4, -7, 2, 12, 16
1503963557659,54, -24, -8, -4, 1, -3, -15, 36
1503963557667,-45, 6, 1, -2, 4, -5, -21, -43
1503963557668,-2, -7, -6, -4, -4, -3, 24, 7
1503963557684,-7, -13, 1, 4, 5, -1, 5, 21
1503963557690,15, 2, -2, 3, 3, -2, -9, 12
1503963557697,-22, -2, -10, -2, 1, 2, 11, 50
1503963557714,-12, 10, 2, -3, -3, -1, 7, -17
1503963557719,-13, 8, 3, -1, 0, 1, -3, -7
1503963557728,0, -6, -2, 2, 1, -4, -16, -34
1503963557742,3, 3, 14, 5, 4, 4, 16, -1
1503963557750,14, 15, 8, 4, -11, 3, -2, 9
1503963557758,9, -1, -3, -7, -7, -1, -10, -31
1503963557772,-1, -10, -2, 0, -10, 0, -12, 39
1503963557781,26, 4, 1, 1, -2, 2, 9, 43
1503963557788,25, -6, -1, 1, 8, -1, 7, 33
1503963557802,-28, 16, -1, -6, 0, -6, -9, -26
1503963557810,-9, -1, -15, -19, -18, -8, -2, -23
1503963557818,-2, -2, -10, 30, -3, 1, -3, -33
1503963557832,26, 23, 21, -2, 4, 1, 2, 12
1503963557833,-12, -6, -3, 2, 7, 0, 8, -10
1503963557839,-10, -6, -13, -13, -5, -3, -3, -8
1503963557848,-90, -22, -3, 1, 4, -8, -16, -68
1503963557862,-30, -9, 1, -1, 2, 3, 5, 30
1503963557870,59, 12, 7, 5, -3, 9, 14, 77
1503963557878,-18, -32, -7, -2, 3, -4, -5, 9
1503963557892,31, 8, -5, -2, 4, -3, -7, 23
1503963557899,-16, 7, -1, -5, 11, -1, -13, -14
1503963557907,30, 5, 7, 2, -5, -7, 4, 16
1503963557922,25, 4, 4, -8, -11, 1, 23, 67
1503963557930,-8, 2, 1, 0, 12, -2, 1, -4
1503963557945,0, -6, 0, 8, 2, 2, 0, -13
1503963557952,0, -11, 15, 4, 2, 5, 4, 6
1503963557960,2, 4, -7, -10, -4, -1, -7, -41
1503963557967,3, 35, 2, 0, -3, 1, -2, -6
1503963557997,24, -19, 2, -1, 0, 2, 2, 12
1503963557998,-40, -5, -2, -3, -14, 1, -16, -27
1503963558005,7, 8, -3, -4, -6, -6, 0, -30
1503963558012,15, -26, -15, -6, -1, -2, -2, -19
1503963558020,-57, 2, -3, -9, -5, -5, -14, -39
1503963558027,7, 1, -1, 9, 2, -3, -15, -74
1503963558043,7, 10, -2, -4, 0, -1, 2, -15
1503963558050,3, -13, -2, -2, 1, -1, -4, 31
1503963558065,-52, 7, 1, -7, -6, -5, -8, -28
1503963558072,-13, -9, -2, -4, 7, 1, 9, -44
1503963558083,23, -2, 8, 8, -14, 0, 1, 12
1503963558087,46, 3, -5, -1, -9, -1, 4, 83
1503963558103,16, 4, 0, 5, 7, 2, -1, 10
1503963558110,14, -10, -9, -5, -1, 1, -2, 3
1503963558125,22, -5, -2, -1, 2, -4, -6, -1
1503963558132,-15, 8, -1, 9, 3, -4, 0, -12
1503963558140,-10, -5, -10, -11, -4, -4, -12, -28
1503963558155,-8, -8, 7, -12, 0, -1, 2, -39
1503963558163,10, 3, 11, 6, 5, 3, 16, 24
1503963558170,49, -5, -2, 0, 6, -4, 8, 63
1503963558186,-12, -6, -7, -3, -1, -5, -3, 12
1503963558192,-14, 0, 2, 2, 3, 3, 2, -7
1503963558201,-1, -4, -22, -19, -2, -2, 2, 28
1503963558217,-19, 8, 34, 6, -28, 4, -4, -5
1503963558224,-18, -7, 4, -6, -11, -5, -1, -5
1503963558230,-13, -5, -12, -1, -2, -7, -2, -3
1503963558246,1, 4, 1, 4, 9, 3, 4, -13
1503963558253,12, -1, -12, 3, 13, -1, 4, 26
1503963558261,-20, -13, -1, 2, 3, 0, 0, 7
1503963558278,-10, 3, 0, 2, 5, 0, -1, 1
1503963558286,25, -5, 0, -2, -4, 0, 0, -9
1503963558291,-10, -8, 2, 29, 3, 0, 3, 0
1503963558306,-17, 0, 8, 10, 1, 4, -10, -1
1503963558313,4, 3, -13, -8, 2, 1, 1, 3
1503963558321,7, -5, -12, -17, -2, -4, -20, -14
1503963558335,-4, 2, 12, -2, -6, -2, -5, -13
1503963558343,10, 4, -1, 4, 1, 1, 1, -9
1503963558351,-4, 3, 0, -9, -1, -1, -2, -8
1503963558365,-28, 1, -9, 1, -5, -2, 2, -31
1503963558372,-9, -6, -17, 3, -2, -3, -1, -11
1503963558389,23, 9, 12, 12, 4, 4, 7, -3
1503963558395,9, 0, -11, -1, -3, -3, -1, 34
1503963558410,11, -8, -5, 4, 3, 0, 0, 3
1503963558411,-2, 4, 14, 11, 7, 3, -3, 15
1503963558427,0, 9, -5, -11, -3, -5, 2, 28
1503963558433,-13, -8, -5, -24, 0, -3, -1, -8
1503963558440,0, -7, -19, 18, -6, -3, -3, 6
1503963558441,-6, 18, 40, 0, -2, -1, -2, 10
1503963558455,-4, -9, -14, -14, 0, 1, 1, -14
1503963558463,26, 1, 18, 17, 3, 2, 1, -2
1503963558470,-8, -9, 2, -5, 1, 0, -2, -7
1503963558487,0, -4, -15, -14, -11, -3, 3, 0
1503963558493,5, -7, 1, 10, -7, -8, -5, -19
1503963558500,-23, -5, -5, -7, -8, 5, 4, 15
1503963558515,2, 10, 26, 7, 5, 10, -1, 8
1503963558523,-4, -1, 3, 9, 6, 1, -1, -5
1503963558530,-9, -7, -11, -10, -2, -8, -5, -6
1503963558545,-4, -22, -24, -6, 3, -9, -8, -4
1503963558553,-2, 1, 3, 12, 6, -5, 6, 0
1503963558561,11, -7, -10, -5, 1, -9, -12, -8
1503963558575,5, 8, -3, -4, 0, 0, 3, 51
1503963558583,-25, -7, -7, 0, -4, -1, -4, -14
1503963558590,-7, 4, 3, 3, 0, 1, 0, -47
1503963558605,-3, 7, 16, 1, 1, 3, 0, -27
1503963558612,-26, -4, -2, -7, 6, 2, -2, -26
1503963558620,-2, 0, 1, 0, -4, 2, 1, -9
1503963558635,12, 3, -1, 0, -2, 1, -1, -25
1503963558643,1, 6, 2, 5, 8, 0, 1, -69
1503963558650,-5, -5, 0, -5, -4, -4, 2, 1
1503963558665,13, 8, -27, 5, 2, 2, -1, 29
1503963558672,-41, 2, -4, 10, 8, 5, 14, -16
1503963558680,6, -1, -7, -11, -20, 3, 13, 37
1503963558695,1, 5, 3, -5, -4, 2, -4, 17
1503963558703,-17, -6, -6, 1, 6, -3, 3, 24
1503963558710,23, 1, 4, -2, -3, 0, -1, 4
1503963558725,-7, -1, 6, 3, 0, -3, -3, -4
1503963558732,3, -4, -14, -11, -8, -3, -1, 13
1503963558740,9, 9, 10, 9, 4, 0, 6, 17
1503963558755,2, -2, -2, -4, 0, 0, -3, -22
1503963558763,10, 1, 0, -15, -5, 1, 3, 2
1503963558770,-10, -20, -3, -3, -1, -1, 1, 4
1503963558787,-12, -6, -7, -6, 21, 7, 11, 9
1503963558792,-12, 3, 1, 6, 4, 3, 1, 6
1503963558800,2, -8, 1, 2, -1, -2, -4, -13
1503963558815,4, -2, -3, -6, -5, -1, 3, 2
1503963558823,-5, 6, 15, 9, 0, 7, 3, -19
1503963558830,3, 7, 5, 3, -1, 4, -6, 11
1503963558845,-2, -8, -14, -3, -6, -6, -5, -4
1503963558854,8, -6, -1, 0, -1, 0, -10, -7
1503963558867,6, 2, 7, 8, -1, -5, -9, 6
1503963558875,17, -2, -31, -2, -5, -7, -5, 2
1503963558883,-8, 0, 6, 7, -1, -6, -10, -2
1503963558890,-5, 3, 7, -10, -2, -5, -4, 0
1503963558905,4, -1, 17, -4, -1, -4, -2, 2
1503963558912,5, 0, -2, -1, -1, -2, 0, 4
1503963558928,6, -9, -5, -4, -2, -1, -5, 10
1503963558935,2, -2, 7, 7, 3, 0, -3, -3
1503963558943,-4, -3, -10, -4, -3, -1, 11, -1
1503963558950,-7, 1, -1, 18, -2, -4, -7, -13
1503963558966,-3, 0, -24, 0, -4, -2, -1, 19
1503963558972,17, 7, 12, -2, 4, -1, 5, 4
1503963558990,7, -9, 12, -4, -1, -4, -1, -7
1503963558995,-8, 5, -6, -8, 7, -2, -2, 1
1503963559003,13, 1, -12, -1, -3, 3, 0, 4
1503963559010,-29, -17, -3, -9, -3, -5, -2, -1
1503963559027,3, 8, 5, 2, -2, -4, -1, -4
1503963559033,-11, -2, -5, -1, -2, -1, 5, 3
1503963559048,-14, 3, 5, 0, -5, 2, -2, 0
1503963559057,-22, 5, -2, -2, 4, 5, 5, 0
1503963559067,-5, -3, 19, 2, 1, -2, -3, -16
1503963559078,19, 16, 1, 0, -1, 0, -2, -2
1503963559086,1, -3, -17, -3, -1, 2, -1, 1
1503963559093,3, -8, -9, -10, -5, -3, -11, 8
1503963559107,-5, 5, -2, 1, -3, -2, -3, -21
1503963559115,14, 27, 6, -2, -6, 0, 6, 7
1503963559123,23, 23, 9, -4, -3, -5, 0, 13
1503963559137,-28, 3, -5, 2, -3, 0, -5, -12
1503963559138,15, -20, -7, 1, -3, 5, 2, 4
1503963559146,11, -15, 4, 2, 0, 1, -7, -8
1503963559152,-12, -2, 11, 6, -2, -3, -7, -20
1503963559167,19, 3, -3, 3, 0, 0, 0, 3
1503963559175,-26, -8, 1, -5, 0, -1, -1, -6
1503963559183,-36, -31, -12, -4, 2, 0, -3, 2
1503963559197,10, 3, 1, 6, -1, -1, 3, 0
1503963559205,-7, 16, -4, -7, -4, -2, -8, 1
1503963559212,9, -13, 6, -1, -9, -20, -1, 2
1503963559228,-25, -9, -2, 3, -2, 0, 7, 10
1503963559235,20, -4, -10, -5, -1, 3, 1, 2
1503963559243,-1, 7, 7, 15, 3, 3, 2, 4
1503963559258,5, -10, -1, 2, 0, 1, -4, -1
1503963559265,-1, -7, -12, -8, -2, -5, -3, -7
1503963559266,2, 10, -4, -12, -3, 0, -2, 0
1503963559272,45, 20, 30, 30, -6, 1, 4, 11
1503963559287,6, -6, -10, -5, -2, -3, -1, -6
1503963559295,-15, 45, 12, -11, 1, 3, -1, -4
1503963559303,8, -14, -4, 2, 1, -2, -2, -4
1503963559317,1, -10, -11, -3, 1, 5, -1, -4
1503963559326,-15, -23, 6, -9, 2, 0, -8, 3
1503963559333,-7, 3, 4, 0, 3, -2, -10, -10
1503963559348,0, -4, -10, -6, -2, -2, 2, 6
1503963559355,-12, -13, -5, -5, 0, -2, 2, -6
1503963559363,18, 10, 14, 14, 2, 2, -1, -2
1503963559377,-11, 4, 0, -1, 0, 2, -1, -9
1503963559385,2, 9, 0, -4, 0, 2, 3, 3
1503963559393,5, -6, -17, -7, -1, -1, 2, 13
1503963559407,-49, -15, 11, -2, -4, -5, -9, -26
1503963559408,12, 1, -7, -3, -2, 1, 2, 0
1503963559415,13, -4, 1, 1, 2, 1, 1, 0
1503963559426,21, 8, -6, 2, 3, 2, 2, 3
1503963559427,-13, 5, 9, 3, -1, -4, -2, -5
1503963559438,2, -7, -9, -10, -1, -1, -2, -4
1503963559446,-6, 2, 15, 16, 3, 4, 12, 3
1503963559453,-33, -8, 8, -2, -3, -5, -34, -24
1503963559468,-4, -9, -6, -9, -5, -1, -2, -12
1503963559475,-2, -2, -7, -3, -1, 3, 12, 6
1503963559483,13, 19, 10, 5, -2, -2, 1, 2
1503963559498,-8, -34, -8, -8, 2, 0, 4, -4
1503963559506,-9, -5, -17, -3, -2, -3, 3, -10
1503963559513,-6, 6, 7, 3, -1, -2, -6, -16
1503963559528,-26, -7, -6, -8, -3, -2, -5, 6
1503963559535,13, 8, 3, -1, -1, -4, 4, 13
1503963559554,17, -3, 11, 1, -4, -9, -7, -6
1503963559559,11, -3, -12, -13, -4, 4, 9, 5
1503963559565,7, 3, 17, 9, 6, 7, 3, 9
1503963559574,-22, -6, -16, 0, 3, 7, -4, -4
1503963559587,19, 17, -11, -10, -6, 0, 7, 5
1503963559596,-51, 0, 5, 2, -5, -6, 0, -4
1503963559603,1, -4, -7, 0, -2, -2, -1, 19
1503963559618,11, 3, -1, 2, 8, 8, -16, -2
1503963559627,-5, -2, 0, 2, -7, -6, 0, 4
1503963559632,7, -7, -9, -3, -4, -6, 7, 13
1503963559647,-7, -1, -3, 1, 6, 0, -3, -7
1503963559662,13, 8, 4, -2, 0, 8, 3, -3
1503963559663,-6, -10, 1, -22, -2, -2, -2, -9
1503963559678,-23, -4, 28, 6, 0, -6, 1, -4
1503963559686,11, -9, -12, -4, -2, -1, -2, -10
1503963559693,19, -14, -18, 2, -3, -1, 4, 9
1503963559707,-16, -5, -2, 1, 0, -3, -7, -22
1503963559715,-9, -1, -9, -8, -6, -8, -4, 8
1503963559723,5, -1, -3, 13, 0, -1, -4, -1
1503963559737,-5, -2, 2, -4, 1, -2, 4, -9
1503963559746,7, 13, -4, -5, 0, 2, -7, -3
1503963559752,8, 11, 2, 1, 3, 0, 1, 3
1503963559768,-19, -11, -9, -10, -1, 0, 5, 6
1503963559776,19, 7, 1, 3, -3, -4, 0, -4
1503963559783,-4, -7, -7, -2, -1, 1, 0, 2
1503963559797,-29, -38, -8, -1, -4, -4, -5, -14
1503963559805,3, 8, 6, 9, 0, -1, -5, -2
1503963559812,-25, 15, -4, -4, -2, -2, 1, -4
1503963559828,6, -1, -2, 3, 1, 1, 4, 0
1503963559835,-13, 9, 5, 1, 9, -2, -15, -12
1503963559843,3, -2, -6, -11, -3, -1, 4, 12
1503963559857,33, 14, 8, 2, 1, -1, 2, 7
1503963559865,2, 6, 12, -1, -1, -1, 2, 3
1503963559872,9, -1, -3, 2, -3, 1, 14, 11
1503963559887,-4, -9, -4, -4, -3, -3, -6, -1
1503963559898,1, 6, 2, -2, -4, 0, 2, -2
1503963559903,-4, -4, 2, 3, 2, -1, -1, -7
1503963559917,9, -12, -24, -8, -3, -2, 5, 7
1503963559925,-24, -2, 3, -19, -2, -2, -7, -14
1503963559932,6, 0, 16, 23, 1, 6, 4, 3
1503963559948,-29, 4, -3, 0, 0, 1, 2, 1
1503963559955,5, -11, -10, -9, -4, -5, -32, -3
1503963559963,16, 11, 1, 8, 1, 1, -15, 11
1503963559977,-3, 7, 9, 0, -12, 1, 8, 5
1503963559985,0, -24, -17, -7, -4, -1, 1, -8
1503963560000,-1, -12, -8, -4, 3, 2, -4, 2
1503963560008,-23, 6, 1, 7, 2, 0, -1, 2
1503963560015,18, 4, -2, -4, 0, -3, -1, 14
1503963560031,-8, -8, -5, 1, 0, 4, -5, 22
1503963560038,-8, 7, 1, -3, -1, -1, 3, -9
1503963560046,27, -3, 12, 2, -3, -1, 0, -8
1503963560062,17, -1, -6, -7, 3, 1, 4, 1
1503963560068,-9, 0, -4, 3, -2, -2, 2, -11
1503963560075,1, 1, -2, 2, 3, -2, 2, -1
1503963560090,-9, 2, -1, -2, -3, -4, -1, -9
1503963560098,-12, 11, 5, 0, -2, -3, -7, -7
1503963560106,18, 4, -1, -3, 2, -1, 8, -6
1503963560119,13, -6, 1, 2, 1, -6, -5, -13
1503963560130,14, 2, 3, 4, 0, -1, 6, 33
1503963560135,-6, -14, -5, -2, -3, -1, 2, -1
1503963560150,-2, 9, -3, -4, -3, -1, -3, -15
1503963560157,1, -2, -6, -2, 0, 0, 4, 6
1503963560166,-3, 7, 4, 0, 0, 3, 0, -2
1503963560179,-1, -13, 1, -1, 1, 3, 4, -2
1503963560187,-6, -6, -7, -3, 0, -1, -1, 16
1503963560197,-2, 8, 9, -3, -3, 0, 1, -2
1503963560210,11, -2, 1, 0, -1, -1, 0, -5
1503963560217,-5, 1, -3, -2, -2, -2, -5, -2
1503963560225,1, -4, -4, 0, 1, 0, 2, -3
1503963560239,-1, -3, 1, -6, 1, 0, -2, 5
1503963560240,-5, 3, 4, 7, 0, -1, 0, -3
1503963560247,-1, -4, 5, -2, -1, -2, -6, 0
1503963560255,-3, -4, 0, -1, -3, -1, -7, -8
1503963560270,3, -11, -4, -2, -1, -1, 5, 27
1503963560277,10, 13, 4, 2, 1, -1, 4, 1
1503963560285,-16, -16, 0, 1, -3, -1, -21, -12
1503963560299,-6, -4, -4, 0, -1, 0, -4, 2
1503963560307,8, 0, -3, -4, -3, -1, -1, -4
1503963560308,-8, 8, -4, -2, -3, -4, 10, 7
1503963560315,3, 3, 0, -1, -1, -3, -1, 1
1503963560331,6, 5, -2, 4, 2, -1, 1, -11
1503963560337,2, 15, 3, -2, 0, 3, 6, 5
1503963560345,8, 4, 5, 2, 2, 1, -2, -12
1503963560359,-6, -14, -3, 0, -1, 1, 9, 19
1503963560368,-1, -3, -2, -2, -3, -3, -8, -6
1503963560375,-22, -5, -4, -4, -4, 0, -4, -8
1503963560390,18, 1, -1, -2, -1, 1, 4, 2
1503963560399,12, 6, -3, 0, -2, -2, -1, -2
1503963560405,-1, -14, 1, 0, 1, -1, 2, 10
1503963560406,-11, 2, -1, -1, 0, -2, -1, -17
1503963560419,4, -4, 0, 1, 0, -5, -4, -6
1503963560427,1, 9, 0, -3, -1, 1, 1, -4
1503963560428,1, -14, -6, 0, -3, 0, 5, 3
1503963560436,-2, -5, -8, -4, -1, -3, -2, -5
1503963560450,7, -9, -8, 1, -1, -3, 2, -26
1503963560457,-6, -10, -2, -3, -2, 0, 0, -6
1503963560468,3, -1, 7, 1, -1, -3, 6, -3
1503963560479,7, 4, -2, 5, 3, -2, 2, -3
1503963560480,2, 3, 0, -2, 2, -1, -2, 1
1503963560487,-4, 5, -1, -4, -3, 0, -4, 2
1503963560495,1, 4, 3, 4, 0, -1, -3, -5
1503963560510,3, 8, -2, -1, -1, 1, 6, 9
1503963560518,-8, 1, -4, -5, 0, -2, -7, -4
1503963560527,-20, -2, 9, 8, 2, 1, -4, 1
1503963560540,-1, -1, -2, -4, 1, -1, -5, -2
1503963560548,-10, 0, 5, -1, -1, -1, -9, 40
1503963560555,-12, 0, 2, 3, -2, 1, 1, 21
1503963560570,-1, 0, -3, 2, -2, -23, 2, 2
1503963560577,3, 3, 3, 0, -1, 2, 5, -12
1503963560585,1, 0, 2, 1, 1, 1, -3, -17
1503963560600,5, -2, -1, 2, 0, 1, 2, 0
1503963560608,1, -11, -2, 0, -2, 5, 4, -11
1503963560615,-6, 5, 2, -6, -3, 1, 1, 2
1503963560630,12, 16, 2, 0, 3, 3, -4, 0
1503963560637,-5, -3, -1, 1, -2, -3, 0, 1
1503963560645,-7, -3, -11, -9, -1, 2, 2, 2
1503963560659,1, -1, -1, 3, 0, -2, -2, -11
1503963560668,13, 8, -2, -3, 0, 5, -3, 4
1503963560675,2, -9, -2, 4, -1, -1, -8, -13
1503963560690,-29, -4, -2, 2, -3, 3, 0, -12
1503963560697,5, 18, 4, -3, -2, -2, 1, 5
1503963560712,7, 2, 2, -1, 1, -2, -1, -18
1503963560719,-2, 4, 2, 1, -1, 1, -3, 3
1503963560727,2, -4, -4, -2, 0, 0, 0, -14
1503963560736,2, -4, -7, -4, 0, -4, -4, -8
1503963560750,6, 2, 0, -6, -4, -1, -2, 33
1503963560757,9, 2, 7, 7, 3, 4, -1, 5
1503963560767,6, -7, -8, -2, -2, -3, 14, 6
1503963560780,-2, -5, -3, -6, -3, 2, 3, 13
1503963560788,0, -1, 0, -1, 0, 3, 0, -3
1503963560795,-19, 2, -2, 1, -1, -1, 9, -14
1503963560810,-3, -2, 2, -4, -3, -2, -11, -12
1503963560817,4, -5, 4, -1, 0, 3, 0, -24
1503963560825,-9, 0, 3, 2, -2, -4, -5, -9
1503963560840,-4, -2, 17, 10, -1, -2, 1, -15
1503963560848,18, 2, -2, 1, 1, -2, -2, 5
1503963560855,13, 0, -4, -8, 0, -1, 1, 32
1503963560870,11, -9, -3, 0, -1, -2, -7, -14
1503963560877,12, -2, -4, -2, -2, -4, -2, -3
1503963560885,-4, 1, 0, -4, -1, 1, 5, -14
1503963560906,0, -10, -5, -4, 0, 1, -13, -13
1503963560908,1, 5, 1, 0, 1, 0, -5, 26
1503963560922,-3, -2, -7, 3, -1, 0, -3, 9
1503963560930,-7, -2, -2, -1, -4, 0, 1, -11
1503963560944,-1, -1, -5, -4, -3, -2, -2, -20
1503963560952,-5, -9, 0, -2, -2, 0, -4, -1
1503963560966,8, 3, 1, -3, -1, -3, 6, 0
1503963560969,-19, 3, 3, 4, 1, -2, -2, -17
1503963560982,-3, -7, -7, -4, -1, -2, -3, 2
1503963560990,12, 3, -2, -2, -3, -1, 3, 11
1503963560998,-6, -2, -2, 3, 1, -1, -2, 0
1503963561012,-5, 4, 1, -2, 3, -2, 0, -9
1503963561020,-7, -2, -2, -5, -3, 1, -3, -8
1503963561028,-14, -7, -2, 4, -1, -2, -1, -24
1503963561042,0, -6, -7, -4, 0, 0, 1, 7
1503963561050,3, 3, 0, -5, -2, 0, -2, 11
1503963561057,-16, 2, 5, -1, -2, -1, 1, -3
1503963561072,-6, -2, -4, -2, 0, 1, -2, 6
1503963561080,4, -10, -3, -1, 1, -1, -4, 7
1503963561088,12, 6, -1, 2, 0, 0, -1, 3
1503963561104,-4, 4, -1, 0, -1, -2, -5, 10
1503963561110,0, 1, 0, -4, -4, 0, -4, -6
1503963561124,2, 0, -1, 2, -1, -1, 5, 5
1503963561132,-2, -5, 2, -2, 2, 1, 1, 2
1503963561140,-2, -1, -3, -3, -1, -1, -2, 10
1503963561148,6, -7, -3, 0, -2, 0, 1, 6
