1503942504235,2, 3, 1, 5, 2, 1, 2, 2
1503942504250,-2, -1, -1, 1, -1, -1, -1, -1
1503942504257,-2, 0, -3, -1, -1, 0, -1, -1
1503942504265,-4, -2, -1, 0, 0, -2, 0, -1
1503942504279,2, -2, 1, -1, -1, -1, -2, -3
1503942504287,-2, 4, 0, -2, -1, -2, -2, -3
1503942504296,1, -2, -1, 0, -2, -1, -2, -2
1503942504316,0, -2, -1, 0, -3, 1, 0, 1
1503942504317,-4, -2, -5, -2, -1, -2, -1, -1
1503942504331,2, 0, -2, -5, -1, 0, -1, -1
1503942504332,-2, -3, -3, 0, 0, 1, -1, -1
1503942504351,1, -1, -1, -2, -1, -2, 0, -2
1503942504361,-3, 0, 0, 1, 1, -1, 0, -2
1503942504370,-1, 0, -3, 0, -1, -3, 0, -1
1503942504377,1, 1, 0, -1, -2, 0, 0, 3
1503942504386,3, 0, 1, 0, 0, 1, -1, 0
1503942504399,-4, -3, -1, 0, 0, -3, -2, -2
1503942504407,2, 2, 0, 1, -1, 1, 0, 1
1503942504415,2, 2, 2, 2, 0, 1, 0, 0
1503942504432,-4, -5, -2, -2, 1, -1, -1, -1
1503942504437,-1, 0, -2, -3, 0, 1, -2, 0
1503942504445,-1, -2, 0, -3, -1, -1, -3, -4
1503942504460,-1, -1, -3, -5, -2, -2, -1, 0
1503942504468,0, -1, -3, -4, -3, -1, -2, -3
1503942504475,-1, -3, -2, 1, -2, -3, -3, -5
1503942504490,0, 1, -1, -1, -1, -1, 0, -1
1503942504497,0, -2, -3, -1, 1, -1, 2, -1
1503942504505,0, 1, -2, -2, -1, 0, 0, -1
1503942504520,2, 4, 0, 2, -1, 0, -1, 0
1503942504527,-2, 2, -5, -1, 0, -1, 0, -2
1503942504535,-2, -1, -1, -3, -2, -2, 0, -1
1503942504550,0, -1, -3, 1, 1, 0, 0, 3
1503942504557,0, 0, 1, -1, 1, 0, -3, -2
1503942504565,0, 0, 0, 1, 0, 0, 1, 1
1503942504579,-1, -3, -3, 0, 2, -2, -1, -2
1503942504588,-2, 0, 1, -1, 0, -1, -2, -1
1503942504595,0, 1, 1, 0, 1, 1, 3, 5
1503942504610,1, 0, -2, -2, -2, -2, -1, 0
1503942504617,0, -2, 1, -1, -2, 0, 0, 3
1503942504625,0, 2, 0, 1, 0, -1, 0, -2
1503942504639,0, 2, -2, 0, -1, 0, 0, -2
1503942504647,-3, -8, -3, -2, -2, -2, -4, -3
1503942504655,0, 1, -4, -2, -1, -1, 1, -1
1503942504670,2, -2, -2, -1, -1, -1, 0, -2
1503942504677,-4, -4, -4, -3, -3, -2, -1, -2
1503942504685,-3, 0, -3, 0, 1, 0, -1, -1
1503942504699,0, -3, 0, -1, -2, 0, -2, -2
1503942504707,0, 0, -4, -3, -1, -2, 1, 0
1503942504715,-2, 2, -3, 0, 0, -2, 0, 2
1503942504730,-2, -1, -1, 1, -1, 0, 0, 0
1503942504737,-2, -1, -2, -2, -1, 1, 0, -1
1503942504745,1, 2, -2, -1, 0, 1, 1, 2
1503942504760,0, 0, 0, 0, 0, -1, -1, -1
1503942504767,-3, -2, -3, -2, -2, -2, -2, -2
1503942504775,-2, -1, -2, -1, 0, 0, 0, -1
1503942504794,1, 2, 2, 3, 0, 0, 1, 0
1503942504799,1, 2, -2, 0, 0, -2, 0, 0
1503942504805,-3, -2, -3, -3, 0, -3, -2, -1
1503942504822,1, 2, 1, 3, 0, -1, 1, -1
1503942504827,0, -1, -2, -3, -1, -1, -2, -1
1503942504835,0, -3, -1, -1, -2, -2, -1, -1
1503942504850,0, 0, 0, 1, -3, -1, -4, -2
1503942504859,-1, 0, -1, -4, -5, -2, -3, -2
1503942504865,0, 0, -1, 0, 0, -1, 1, 2
1503942504879,-2, 0, -1, 2, 0, 0, -2, 0
1503942504889,0, 0, -3, 1, -3, -2, 0, 0
1503942504895,0, -1, -2, -1, -2, 0, 1, -3
1503942504910,-4, -2, -2, -1, 0, -1, -3, -1
1503942504917,-2, 0, -5, -3, -1, -1, 1, -1
1503942504925,3, 1, 0, 2, 1, -1, 1, -1
1503942504939,0, -1, 0, -1, 1, 0, -1, 0
1503942504947,0, 1, -1, 0, -1, 0, -1, 0
1503942504956,-1, 1, -1, -2, 1, 1, 0, 1
1503942504970,0, 0, 0, -3, 0, 0, 0, 0
1503942504977,-4, -1, -1, -3, -2, -1, -2, 1
1503942504985,0, -3, 1, -2, -3, -1, -3, -3
1503942504999,-1, 0, -1, 1, 0, -1, 0, -1
1503942505007,-1, 2, -3, -1, 0, 0, 0, -1
1503942505015,-1, 1, 0, 2, 0, -2, -1, -2
1503942505030,-2, -3, -5, -4, -4, -1, -1, -1
1503942505036,-2, -3, -1, 0, -1, 0, -3, -1
1503942505037,-1, -2, -1, -2, 0, 0, 1, 2
1503942505045,-2, 1, -2, -2, 0, -1, -1, -2
1503942505059,1, -1, 0, 0, -1, 0, 0, 0
1503942505067,-2, 0, -2, 1, 0, -2, -3, -4
1503942505075,0, 0, 0, 2, 2, -1, -3, -1
1503942505091,-1, 0, -1, -1, -2, 0, -1, -1
1503942505097,-2, 0, -3, -1, -1, -1, -1, -1
1503942505105,0, -3, 0, -1, -1, -1, -2, -4
1503942505119,-1, -3, -2, -2, 0, -1, -3, -4
1503942505127,1, 0, -1, 3, 1, 1, 1, 1
1503942505142,1, -3, -3, -2, -3, -2, -1, -3
1503942505150,-2, -1, -1, -3, -1, -2, -1, 0
1503942505159,-1, 1, -1, -2, -1, 1, 1, 0
1503942505172,-1, 0, 1, 1, 0, 1, 0, 2
1503942505179,-2, -2, -1, 0, -2, 1, 0, 1
1503942505187,1, 1, -5, 0, 0, -2, 1, -4
1503942505205,2, 2, 0, -3, -1, -1, -2, 0
1503942505210,-2, 0, 0, -2, -1, 0, -2, 2
1503942505217,-2, -4, -2, -1, 0, -3, -3, -1
1503942505233,1, 0, 1, -1, 0, 0, 0, -2
1503942505239,-4, -2, 0, 0, -2, -1, -1, 0
1503942505248,-3, -3, -1, -1, -2, 0, 0, -4
1503942505267,4, 2, 0, 0, 1, -2, 2, -1
1503942505270,0, -2, -1, -2, 0, -1, -1, 1
1503942505277,-2, 0, -2, -1, -3, -3, -1, -3
1503942505295,-1, -3, -1, -1, -1, 1, 0, -1
1503942505304,1, 1, -4, -1, -1, -1, -1, 2
1503942505307,0, -1, -2, -2, -1, -1, -3, -1
1503942505322,-1, -2, -2, 0, 1, 0, 0, -2
1503942505330,-2, 1, -1, 0, 1, -2, -1, 1
1503942505337,-1, 0, -5, -3, -4, -1, -2, 1
1503942505352,2, -1, 0, 1, -2, 0, 0, 2
1503942505363,-4, -2, -1, -1, 0, 0, -2, 0
1503942505368,-3, 2, -2, 2, 0, 0, -2, -1
1503942505382,-2, 0, -1, -2, -3, 0, 0, -4
1503942505390,1, 2, 0, -1, -1, -1, 0, 3
1503942505397,2, 1, 2, -1, 1, 1, -1, 0
1503942505412,-1, 0, -1, -2, 0, 1, 0, 0
1503942505419,-2, -1, -5, -2, -3, -1, 0, -1
1503942505430,-3, 0, -1, 1, -1, 0, 0, 0
1503942505442,2, -3, 2, 3, 0, -2, -1, -2
1503942505450,0, -2, -3, -1, -2, -2, -2, -1
1503942505457,-1, 1, 0, -2, -1, 1, -2, -2
1503942505472,4, 2, -6, -3, -1, -2, 0, 0
1503942505479,-2, -1, -2, 0, 2, -2, 0, 2
1503942505487,-1, -3, -2, -2, -1, -2, -2, -5
1503942505503,2, 0, -3, -2, 0, 0, -1, -1
1503942505510,0, -3, -3, 0, 0, -2, -1, -7
1503942505538,-2, -3, -2, 0, 1, 0, -2, -2
1503942505540,1, 0, -2, -2, -3, 0, -1, 0
1503942505547,0, -1, -3, -2, -1, 0, -2, 1
1503942505565,-1, 0, 0, -1, 0, -1, 0, 2
1503942505570,-1, 4, 2, -1, -2, -2, -1, 2
1503942505585,1, -1, -3, -1, -1, -1, -1, 0
1503942505602,-4, -2, -1, -3, -2, -1, -1, -1
1503942505604,-4, 1, 2, 1, -1, -1, 0, 0
1503942505607,0, 2, 1, 0, -2, 1, 1, 3
1503942505623,-1, -1, 1, 0, 0, 0, -1, -3
1503942505630,2, 0, -2, 1, -1, 1, -1, 3
1503942505645,-3, 1, 3, 1, 0, 0, -1, -4
1503942505652,-3, -2, 1, 0, 1, -2, 0, -4
1503942505662,-2, -1, -4, 0, -1, -1, -3, 0
1503942505667,0, -3, -3, -3, -2, -2, -2, -1
1503942505683,0, -3, -2, 1, 0, 0, -1, 1
1503942505690,2, 1, -3, -1, 1, -1, 2, 0
1503942505705,1, -3, 0, -1, -2, -3, -3, 1
1503942505712,4, -2, 0, 0, -2, -3, -2, -1
1503942505720,-1, 0, -2, -3, 0, 0, -2, -4
1503942505728,1, 0, -2, -2, -2, 0, -1, 2
1503942505743,2, 0, -2, -1, -2, 0, 0, 4
1503942505750,-5, 2, -1, -1, -2, 1, 1, 0
1503942505766,-2, 1, -2, -3, 0, -1, 0, -2
1503942505772,0, 0, 0, -2, -1, -1, -4, -3
1503942505780,-2, -1, -3, -1, -2, -2, -1, -4
1503942505787,-1, 1, 0, 1, 2, -1, -1, -2
1503942505803,0, -2, 0, -1, -1, -1, -1, -1
1503942505810,1, 2, -4, -1, -1, 0, -1, -2
1503942505825,-3, -4, 1, 0, 0, -1, -2, 1
1503942505832,-2, -2, -3, -2, 0, -2, -1, 2
1503942505840,-2, -5, -3, -2, -1, -2, 0, 1
1503942505847,-1, -2, 1, -1, -1, -1, 0, 1
1503942505866,2, 2, -2, 1, -1, -1, -1, 1
1503942505871,-2, 0, -3, -1, -1, -1, 1, -2
1503942505886,0, 5, 0, -1, 1, 1, 1, 0
1503942505892,0, -1, 1, 3, 0, 1, -1, -4
1503942505900,-2, 2, -1, -2, -3, -3, 0, 1
1503942505907,-3, 0, -1, 0, -2, 0, -1, 0
1503942505923,-2, 0, -1, 0, 0, 0, 0, -4
1503942505930,-2, -1, -2, 0, 1, 0, 1, 0
1503942505945,0, 1, 1, -1, -2, -2, 1, 0
1503942505953,0, 0, 2, -2, -1, -1, -2, -1
1503942505961,-3, 1, -2, -3, -1, -2, 1, 1
1503942505962,-1, -2, -4, -1, 0, -1, -4, -2
1503942505967,0, -1, 0, -1, -1, -2, 0, -2
1503942505983,-1, 0, -1, -3, 0, 0, -2, -2
1503942505990,0, 1, -2, 0, -2, -1, -2, -2
1503942506008,0, -4, -3, 1, 0, -1, -1, 0
1503942506012,-2, -2, 0, -6, -4, -4, 0, -1
1503942506020,-2, -1, -5, -2, -1, 0, 0, 2
1503942506027,-4, 0, -2, -2, -1, -1, -2, -1
1503942506043,-1, -1, -1, 0, -2, -1, -1, -1
1503942506050,0, 0, -2, 1, 0, 0, 0, 1
1503942506065,-1, 1, -4, 0, 0, -1, -2, 0
1503942506072,1, 3, 0, -1, 0, -2, 0, 0
1503942506080,1, 0, -1, -1, 0, 1, 1, 3
1503942506097,-1, 1, -1, 0, 0, 1, 0, 3
1503942506104,-1, -1, -1, -1, 0, -3, 0, -2
1503942506110,-2, -4, -2, 0, -1, 0, 1, 0
1503942506125,0, -4, 1, -2, -1, 0, 0, 2
1503942506132,1, 1, -2, 0, 1, -1, 0, -1
1503942506141,-3, -2, -2, -3, -1, -1, -1, -3
1503942506155,-1, 0, -4, -2, -2, -2, -2, -2
1503942506166,2, 2, 3, 0, 1, 1, -1, 0
1503942506167,1, 2, -2, 1, -1, 0, 0, -2
1503942506170,0, -3, -1, -1, -1, -2, -2, 1
1503942506185,0, 2, -1, -2, -2, 0, -1, -1
1503942506192,-4, -3, -2, 0, -1, -2, -2, -1
1503942506201,2, -1, 0, 2, 0, -1, -1, -3
1503942506215,-1, -1, -1, -1, -2, 0, -2, -2
1503942506223,1, 5, 0, -1, -1, 0, -1, -1
1503942506231,-2, -1, -1, -2, -1, -2, -1, 0
1503942506232,1, 1, -2, 0, 0, 0, -1, 3
1503942506245,-2, 0, 0, 0, 0, -2, -2, -2
1503942506252,2, 0, 2, 2, 1, 2, -1, -2
1503942506260,-1, 1, -1, 0, -2, -1, -1, 2
1503942506275,-1, 0, -4, -3, -2, -1, 0, -1
1503942506283,-1, 0, 0, -1, 0, 0, 0, -1
1503942506290,-1, 1, -2, -2, -1, 0, 0, -1
1503942506305,-2, -3, -2, 0, 1, 1, -1, 1
1503942506312,-2, 2, 0, -3, -2, -1, -5, 2
1503942506320,-2, -1, 0, -1, -2, -2, 0, -3
1503942506335,-4, -4, 0, 0, -1, -1, 2, 1
1503942506343,2, 1, -3, -2, -1, -1, 0, 0
1503942506350,5, 0, 1, 2, 2, 0, 0, -1
1503942506369,-2, -1, 2, -2, -2, -1, -2, -2
1503942506370,-4, -4, -1, -1, 0, 1, -3, -1
1503942506372,-2, -1, -3, -3, -1, -2, -1, 1
1503942506380,-1, -2, -1, 0, -1, -2, -1, -1
1503942506395,-2, 0, -3, -1, -2, -1, 0, -3
1503942506403,-2, -1, -1, -2, -1, -3, 0, 0
1503942506410,1, -1, -2, 1, 0, -2, 0, -1
1503942506425,0, -3, -3, -2, -2, -1, 0, -1
1503942506433,-3, -1, -2, -2, -1, -1, -1, 0
1503942506440,-2, 0, -1, -2, 0, 1, -1, -2
1503942506455,-3, -2, 0, 0, 2, -1, 0, -1
1503942506463,-3, -3, -2, -2, -1, -2, 1, 0
1503942506471,1, 0, -4, -2, -3, -1, -2, -2
1503942506485,1, 0, -1, -1, -2, -1, 1, -1
1503942506492,-1, 0, 0, -2, -2, -2, -1, -2
1503942506501,2, 2, 1, 2, 1, 1, -2, -1
1503942506516,1, 2, -1, 0, 0, 0, 1, 0
1503942506523,-1, -1, -2, -1, -1, -1, -1, 2
1503942506530,2, -2, 0, 0, 0, 0, -3, -1
1503942506545,-2, -1, -3, -1, -3, -1, -3, -4
1503942506552,0, 2, -3, -3, -2, -1, 0, -3
1503942506560,-1, 0, -1, -4, -2, -1, -2, -2
1503942506575,0, -3, 2, -2, -2, -2, -2, -3
1503942506583,-1, 0, -5, 1, 0, 0, -1, 0
1503942506590,-4, -1, -3, -1, 0, 0, -1, 2
1503942506605,-2, -2, -1, -2, -1, -2, -2, -2
1503942506612,-2, 1, -2, 5, 1, 2, 2, -2
1503942506620,-2, 1, 0, -1, 0, -1, -2, 3
1503942506635,0, 1, 1, 0, -2, -1, -1, -1
1503942506643,1, 4, -2, -1, 1, -1, -2, 0
1503942506650,-1, 0, -3, -2, -1, -1, -1, 0
1503942506668,1, -2, 0, 0, -2, 0, -1, -2
1503942506672,-3, -1, -4, 0, -2, -1, -3, 1
1503942506681,-4, 1, 0, -3, -4, -2, 0, 0
1503942506695,0, -3, -1, -1, -1, -3, 1, -1
1503942506706,1, -3, -1, 1, -1, -1, 0, -2
1503942506710,-1, -2, -1, -2, -2, -1, -3, 0
1503942506725,1, -3, 1, -1, -1, -2, -1, -3
1503942506733,-2, 2, 1, -1, 2, -1, 2, 1
1503942506740,2, 1, 4, 3, 1, 3, 2, 1
1503942506755,-2, -1, -2, -1, -3, -1, -1, -1
1503942506763,0, 3, 1, 2, 0, 0, 1, 2
1503942506770,1, 0, -1, -1, -2, -1, -2, -2
1503942506785,-1, -3, -3, 0, -2, -3, -1, -2
1503942506792,0, -3, -1, -4, -2, -2, 0, -2
1503942506802,-2, -2, -4, -2, -2, -1, 0, 2
1503942506815,-3, -2, 0, 1, 1, -1, 1, 1
1503942506823,-2, 4, 0, 1, 1, 2, 1, -1
1503942506830,-2, -3, -1, -2, -1, 0, -1, 0
1503942506845,-1, -3, -2, -1, -3, -2, -3, -1
1503942506852,5, 2, 0, 0, -1, -2, -1, 1
1503942506860,-1, -2, -4, -3, -1, -1, 0, -2
1503942506875,1, 0, -1, -1, 0, -1, -3, -1
1503942506883,-2, 0, -1, 0, 0, -3, -2, -1
1503942506890,-1, -2, -2, 0, 0, -1, 0, 0
1503942506905,-2, -1, 1, 4, 0, 2, -2, -6
1503942506912,-3, -1, -2, -2, 0, 1, -1, 0
1503942506920,-3, -4, -3, -3, -1, 0, 0, 1
1503942506937,1, 2, -3, 0, -4, 0, -2, 0
1503942506943,4, -1, -5, -3, -1, -2, -2, -1
1503942506950,2, -3, -1, -2, -1, -2, -1, -3
1503942506965,-1, -1, 0, -1, -1, -1, -1, 0
1503942506972,-3, 3, -2, 1, -1, 0, 1, 0
1503942506980,0, -1, -2, -1, 1, 1, 0, 1
1503942506995,3, 1, 4, 3, 2, 0, 1, 0
1503942507004,0, 1, -2, 0, 0, 0, 0, -1
1503942507017,-4, -2, -3, -3, -3, -1, -3, -4
1503942507025,-2, 3, -3, -2, -2, -1, 0, -2
1503942507032,-1, -1, -2, 0, 1, -1, 0, 0
1503942507047,-3, -4, -2, -1, 0, -2, -2, -1
1503942507055,-2, -3, -3, -2, -1, 0, 0, 0
1503942507063,1, 3, 0, -4, -3, -3, -2, -1
1503942507077,-3, -4, -3, 0, -2, -1, -1, -1
1503942507085,4, 3, 0, 1, -1, 0, 0, 2
1503942507092,-2, 4, -2, -1, -1, -2, 0, -3
1503942507107,-1, -2, -3, -2, -1, -1, 0, 2
1503942507115,2, 0, 1, -1, 1, 1, 0, 1
1503942507123,-2, 1, 0, 0, 0, -2, 0, 1
1503942507138,0, 0, -2, -2, -2, -3, 0, 2
1503942507139,0, -1, 0, -1, 2, -2, 1, 1
1503942507146,-3, 2, -4, -1, 0, -1, 0, -3
1503942507152,-2, -1, -4, 0, -2, -1, 0, 2
1503942507167,-2, 2, 1, 2, 2, 1, 0, 1
1503942507175,-1, -3, -3, -1, -2, -2, -1, 0
1503942507183,3, 1, -1, 0, 1, -1, -1, -2
1503942507197,1, 2, 0, -2, -1, 0, 0, 1
1503942507212,0, -3, -2, -1, -4, -2, -2, -1
1503942507215,-1, -2, -1, -3, 0, -1, -3, -1
1503942507227,0, -4, -2, -2, -2, -1, -1, -3
1503942507235,-1, -1, -1, -1, -1, -1, -3, -1
1503942507243,0, -1, -4, -2, 0, -1, -1, 1
1503942507257,0, 0, -1, -4, -3, -2, -1, 1
1503942507267,-4, -4, 0, -4, -1, 0, 1, -1
1503942507277,-2, -1, -3, -2, -1, -2, 0, 1
1503942507278,2, 0, 1, -2, -2, 0, -2, -3
1503942507287,-1, 1, -1, -1, 0, 0, -1, 3
1503942507295,-1, 1, -1, 0, 0, 0, 0, -1
1503942507312,-1, 1, 0, 0, -1, -1, -2, -1
1503942507317,0, -1, -4, 1, -1, -1, 0, 0
1503942507325,1, 4, 1, 0, -2, 0, 0, 3
1503942507332,0, 1, -2, 0, -2, 0, 1, 2
1503942507348,-1, -3, 1, 1, -1, 0, -2, -2
1503942507355,-2, 0, -1, -1, 0, -2, -1, -1
1503942507363,-2, -3, -1, -2, -1, -1, -2, -3
1503942507377,-2, 1, 2, 1, 0, 1, 0, 1
1503942507386,0, -1, -3, -1, -1, -1, 1, -1
1503942507392,0, -3, -3, -1, -3, -1, -3, -1
1503942507407,-3, 0, -3, 0, -2, -2, -1, 0
1503942507415,-1, 1, -3, -2, -1, -1, -2, -2
1503942507423,1, 2, -2, 0, -1, -1, -1, 0
1503942507437,-2, -1, -2, 1, 0, -1, 0, 0
1503942507445,-3, -1, -2, 1, 1, 0, 0, -3
1503942507452,2, -1, -1, -1, -1, -1, 0, 0
1503942507467,0, -1, 2, 0, -1, -2, -2, 0
1503942507475,-1, -1, 0, 0, -1, 0, 1, 0
1503942507483,0, 2, 0, 4, 1, -1, 0, 2
1503942507497,1, 2, 1, -1, 0, -1, -3, -1
1503942507507,-1, 0, -4, -2, -3, 0, -1, 0
1503942507512,-2, -3, -2, 0, -1, 1, 0, -1
1503942507527,0, -1, 2, -2, 0, 0, -1, 3
1503942507535,-1, -1, -5, -4, -2, -1, -1, -2
1503942507543,-2, -1, -1, 0, 4, -3, -1, 0
1503942507557,0, -2, -1, -3, -3, -2, -2, -2
1503942507565,0, 0, -3, -1, -4, -2, -3, -3
1503942507574,-2, 1, 0, 0, 3, -1, 1, 0
1503942507587,0, -1, 2, -2, 0, 0, 1, -3
1503942507595,-1, 0, -3, -1, -1, 1, 0, -2
1503942507603,0, -1, -2, -2, -2, -1, -1, 2
1503942507617,0, 3, 0, 1, 0, 0, -1, -1
1503942507625,-2, -1, -5, -3, -4, -2, -1, -3
1503942507632,-2, -3, 0, -1, -2, -1, -3, -1
1503942507647,-2, -2, -1, 2, -2, 1, 0, -2
1503942507655,2, -2, 0, 3, 1, -1, -2, 1
1503942507663,1, 0, -4, -1, 0, 0, -1, -1
1503942507677,-5, -2, -3, 2, -4, 0, -1, 0
1503942507685,1, 0, 0, 0, 0, -1, -1, -1
1503942507692,2, 2, -3, -1, 1, -2, -1, 0
1503942507709,-4, -2, -3, -1, 0, 1, -1, 1
1503942507715,0, -2, -3, -1, -1, -1, -2, 0
1503942507723,1, 2, -5, -2, -4, -2, -1, 0
1503942507737,-3, -1, 1, 3, 0, 0, -1, -5
1503942507746,-3, 3, -1, 0, 2, 1, -1, 1
1503942507752,0, 1, -1, -4, -1, -1, -1, 2
1503942507767,1, 0, 1, 0, -2, -3, -2, 0
1503942507776,1, 0, 0, -3, -2, -1, -1, 0
1503942507784,0, -2, 0, 1, -1, 1, -2, -4
1503942507797,-4, -1, -1, -4, -1, 0, -1, -1
1503942507805,-2, 1, -1, 1, 3, 1, 1, 1
1503942507812,0, -1, -1, -2, -2, 0, -2, -3
1503942507827,2, -1, 3, 3, -1, 0, -3, -4
1503942507835,2, 0, -1, 0, -2, -1, 1, 0
1503942507844,-1, -3, -4, -4, -4, -2, -2, -4
1503942507857,-1, -3, -1, -2, 0, -1, -2, -1
1503942507865,1, 0, 0, 0, 0, 1, 2, 2
1503942507872,-3, 0, -3, 0, 0, -1, 0, -1
1503942507891,0, 2, 1, 2, 1, 2, 2, 0
1503942507895,0, -1, 1, 0, 0, -1, 1, 2
1503942507903,-5, -2, 1, -1, 0, -3, -1, -1
1503942507917,2, 1, -4, -2, -3, -2, -1, -2
1503942507925,0, -1, -2, -4, -4, -1, 0, -1
1503942507932,-3, 0, 0, -1, -1, -2, 0, 2
1503942507948,-1, 0, -3, -2, -1, 0, -3, -1
1503942507955,-1, 0, 1, 2, 1, 1, -1, 0
1503942507970,1, 1, -3, 2, 2, -1, 0, 1
1503942507978,2, 2, -1, 0, -1, -1, 1, -2
1503942507986,2, -2, -3, -2, -1, -2, -3, -5
1503942507999,1, -2, -2, 2, 0, 1, 0, 1
1503942508007,-2, -1, -1, -4, -3, -3, 0, 0
1503942508015,-1, 0, -1, -1, -1, 0, 0, 1
1503942508030,-1, -1, -1, 0, -2, 1, -1, 0
1503942508037,-1, 0, -2, -1, -2, -2, -3, -4
1503942508046,1, -2, -2, -1, -2, -1, -2, -1
1503942508059,1, 2, -3, 0, 2, 0, 0, -1
1503942508067,-1, -1, -1, 1, 2, -2, -1, 1
1503942508078,-2, -1, -2, -2, -1, -3, -2, -2
1503942508090,-5, -6, -3, -4, -3, -1, -1, -2
1503942508097,0, 1, -1, -1, -1, -2, -2, 1
1503942508105,-3, 1, -3, -3, 0, -1, -1, 0
1503942508120,-1, -1, 3, 2, 0, 1, -1, -2
1503942508127,-1, -1, 1, 0, -2, 0, 0, 0
1503942508135,0, 1, -4, 1, -2, 0, -1, -3
1503942508150,2, -1, -3, 0, 1, -1, -3, -2
1503942508157,-3, -2, -3, -3, -2, -2, 0, 2
1503942508165,2, 1, 0, -3, -1, -1, -1, -1
1503942508179,1, -2, -1, -4, 0, -3, 0, 1
1503942508180,2, 0, 1, 2, 1, 1, -1, -1
1503942508187,-1, 3, -1, -1, 1, 0, 0, 3
1503942508195,-5, -2, -2, 0, -3, 0, -1, 0
1503942508211,-3, -1, -2, -2, -3, -1, 0, -1
1503942508219,-1, -2, -1, -4, -1, -1, -2, -4
1503942508226,-3, 0, -1, 0, -1, -1, -1, -1
1503942508239,1, 0, -3, 1, -1, -1, -1, -2
1503942508248,0, -3, -2, 1, -3, 1, -2, -4
1503942508255,-1, 0, -1, 0, 0, 0, 3, 4
1503942508270,-1, -2, -2, -2, 0, -1, 0, -2
1503942508279,0, -4, -3, -4, -3, -2, -1, 1
1503942508288,0, 1, -2, -1, 0, -1, 0, 1
1503942508299,-1, 0, 1, 0, 0, -1, -2, 0
1503942508307,1, -4, 1, 0, 0, -2, -1, -1
1503942508315,3, 0, 0, 0, 0, 0, 0, 1
1503942508330,-1, 0, -2, -1, 1, -1, 0, 0
1503942508337,-5, -1, -1, 0, 0, -2, -2, -2
1503942508348,-1, 1, 0, -1, -3, 0, -2, 0
1503942508359,1, -1, -3, 0, -2, -1, -2, -1
1503942508367,-1, -1, -4, -1, -3, 0, 1, -1
1503942508375,0, 4, -1, -1, -1, 0, 1, 1
1503942508390,0, -2, -2, -2, 0, -1, 0, 1
1503942508397,-2, -3, -3, -2, 0, 0, -1, -3
1503942508406,0, 1, -2, -2, 1, -1, -1, -1
1503942508420,-4, -2, -4, -2, 1, -2, 0, 0
1503942508429,0, 0, 0, -3, 0, 0, -1, 1
1503942508435,0, 1, -3, -2, -2, -1, -2, -2
1503942508450,-1, 2, -2, 4, 1, 0, 1, 0
1503942508457,-2, 0, -1, -2, -1, -1, -3, -2
1503942508465,-3, -2, -4, 0, -2, 1, 0, 0
1503942508481,-1, -1, 0, -1, -1, -3, 0, -3
1503942508487,1, 2, -1, 0, 0, 0, -1, -1
1503942508495,0, -1, -1, -1, -2, 0, -1, 2
1503942508510,1, -1, 1, 0, -1, -1, 0, -3
1503942508517,-1, 3, -1, 0, -2, 0, -1, -2
1503942508525,-3, -3, -1, -3, 0, -2, -2, -1
1503942508539,-2, -2, -4, -2, 1, 1, 0, 1
1503942508548,0, 1, -1, -1, -1, -3, -1, -4
1503942508557,1, 1, 0, -1, 0, -2, 1, 1
1503942508570,-2, 2, -1, -2, -4, -2, -2, 2
1503942508577,2, 3, 2, 4, 2, 0, 1, 3
1503942508586,0, -1, 2, 1, 0, 2, -2, -2
1503942508599,-1, -2, -2, 0, 0, 0, -2, -1
1503942508607,0, -3, -2, -1, 3, -1, -1, -1
1503942508615,1, 1, -1, -4, -4, -2, -1, -2
1503942508630,-1, 0, -3, -3, -2, -1, 0, 1
1503942508637,-1, 0, -1, 0, 1, 0, -2, -1
1503942508645,1, 3, 1, 3, 2, 0, 3, 5
1503942508659,-2, 2, -2, 1, 0, 0, 2, 0
1503942508667,0, -1, -2, -2, -1, -1, 0, -1
1503942508675,-3, -3, -2, -2, -3, -3, -2, -2
1503942508691,0, -1, -1, -1, -3, -2, -1, -3
1503942508697,-2, -2, -5, -3, -1, -1, -2, -4
1503942508706,0, 0, -1, -2, -1, -3, -2, -1
1503942508720,3, 0, 3, -1, 2, 0, 1, 2
1503942508727,1, -1, -3, 0, -2, -1, -1, -1
1503942508735,2, 0, -1, 1, 1, -2, -1, -2
1503942508750,-1, 0, 1, 0, 0, 2, -1, -1
1503942508758,-3, -4, -7, -2, -2, -1, -1, -1
1503942508765,1, -2, -2, -1, 1, 0, -3, 0
1503942508779,0, -2, -1, -3, -3, -2, -3, -1
1503942508788,-2, -2, -4, -4, -1, 0, 0, -3
1503942508802,0, 1, 0, -1, -1, 1, 2, 1
1503942508810,1, -1, 2, 1, -1, -2, -1, -1
1503942508817,-3, 0, -2, -1, -1, -1, -1, 0
1503942508826,-1, 0, -1, -2, -1, -2, 1, -1
1503942508839,-3, -1, -1, -1, -1, -1, -1, 0
1503942508847,-2, 0, -1, -2, 0, -1, -1, 1
1503942508855,-2, 0, 1, 1, 3, -1, -1, -1
1503942508870,2, 4, 1, 0, -1, -1, 0, 1
1503942508877,-1, 1, -3, 0, -1, -1, -1, 0
1503942508885,0, -3, -1, -3, -1, 0, -1, 0
1503942508899,1, -2, -2, -2, -2, 0, -1, -1
1503942508907,-4, -1, -6, -1, 0, -2, -1, -3
1503942508922,-1, 0, 0, -1, -2, 1, 0, -1
1503942508930,-1, 1, 0, 0, -3, 1, 0, 0
1503942508937,-2, -1, -1, -1, -4, -1, -1, -4
1503942508952,0, -2, 1, 2, 1, -2, -1, -1
1503942508959,-1, 2, -1, 0, 1, 0, 1, 1
1503942508967,-2, -5, -3, -2, -3, 0, -2, -3
1503942508984,3, -1, 0, -3, 0, -1, -1, 2
1503942508991,2, 0, -3, -2, 1, 0, -2, 0
1503942508997,1, -4, -1, 0, -1, 0, -1, -3
1503942509012,-1, -2, -2, 0, -1, -1, -1, -1
1503942509019,-2, 0, -2, -1, -3, -3, -2, 0
1503942509027,0, 4, -3, 1, -1, -1, -1, 2
1503942509042,-1, 1, -2, -1, 1, 0, -2, -1
1503942509051,1, 1, 0, -1, 0, -1, -1, 0
1503942509057,-1, -2, -1, -1, -1, -1, -3, 0
1503942509072,0, 1, -1, -1, 1, 1, 0, -1
1503942509079,-4, -2, -3, 1, 0, 0, -3, -1
1503942509087,-3, -2, -1, -2, -2, -1, 1, 1
1503942509102,1, -4, 0, 0, 0, -1, 0, -2
1503942509110,-3, -1, -3, 0, -2, -1, 0, -4
1503942509119,-1, 0, -2, -3, 0, 0, 1, -2
1503942509132,-2, 0, 0, 0, -1, -1, -2, 0
1503942509139,3, 1, -1, 1, -1, -2, 0, 0
1503942509147,-5, -2, -5, -2, 0, -2, 0, 0
1503942509162,-2, -2, -1, 0, -2, -2, -1, 1
1503942509170,4, 0, -1, -1, -1, 0, 1, -1
1503942509177,-4, 0, -1, -2, 1, 2, -1, 0
1503942509192,3, -2, -1, -1, -2, 0, 0, -2
1503942509200,1, 2, 1, 0, -2, 1, -1, -2
1503942509208,-2, 0, -2, 1, 0, 0, -1, -3
1503942509223,1, 0, -3, -2, -2, -2, -1, 1
1503942509230,-2, -1, -3, -1, -2, -2, -2, -2
1503942509237,-1, 0, 0, 2, 2, 1, 0, 1
1503942509253,0, 0, -1, -2, 0, -2, -1, 1
1503942509261,-6, 0, -5, -2, -1, -3, -3, -1
1503942509268,-2, 0, -1, -1, -2, 2, 1, -1
1503942509282,-1, -3, -2, -1, 0, 0, -1, -2
1503942509290,0, 0, -2, -1, -1, 0, -2, 0
1503942509297,1, -3, -3, -5, -2, -2, -4, -5
1503942509312,0, 0, -1, -1, 0, -3, 1, -3
1503942509321,-1, -2, 0, 1, 1, 1, 1, 0
1503942509329,-4, -1, -1, 2, -1, -1, -2, -2
1503942509342,4, 1, 0, 0, -2, 1, 1, 3
1503942509350,0, -2, -5, 0, -2, -1, -1, 0
1503942509359,-4, -3, 0, 1, 1, -1, -1, -1
1503942509360,0, 2, 2, -2, 0, 0, 0, 1
1503942509372,0, 1, 1, 0, 2, -2, -2, -1
1503942509380,-1, 0, -3, -2, -1, -1, -1, 0
1503942509390,-1, -1, 1, -1, -3, -3, -3, -2
1503942509402,-2, -2, -1, 4, 1, -3, 0, 1
1503942509410,0, 1, -4, -1, -1, -1, -1, 1
1503942509417,-2, 0, -2, -1, -2, 0, 0, 0
1503942509432,0, -2, 1, -1, 0, 0, 0, 0
1503942509440,-3, 3, -2, -2, -2, -1, -1, -1
1503942509448,0, 2, 0, 0, -2, 1, 1, 2
1503942509463,0, 1, -1, -1, -1, 0, -1, 0
1503942509470,1, 1, -1, -1, 0, 0, -2, 0
1503942509477,0, 0, 1, -1, -1, -1, 0, -1
1503942509492,0, -1, -4, -4, 0, -1, 0, 2
1503942509500,1, -1, -2, 0, 0, -2, -2, -2
1503942509508,-5, -4, -3, 0, 2, 0, 0, 0
1503942509522,-1, -2, -3, -2, -1, -1, -3, -2
1503942509530,0, -1, 0, -2, -1, 0, 1, -1
1503942509537,-1, -1, -1, 0, 0, -1, 0, 2
1503942509554,1, 2, -1, 0, -1, -1, -1, -4
1503942509560,0, 0, -2, -4, -4, -2, -1, -2
1503942509568,-3, -1, -1, -2, -4, -2, -1, -1
1503942509581,-2, -1, -1, 0, 0, -2, -3, -3
1503942509591,-3, -5, 0, -2, -1, -2, -1, -5
1503942509597,1, 1, 0, 1, 1, 0, 0, -1
1503942509612,2, 2, -2, 1, 1, 0, -1, 0
1503942509622,2, 0, -3, 0, -1, -1, -2, 1
1503942509628,-4, -1, -3, -3, -2, -2, -3, 0
1503942509641,-1, 0, -1, -1, -2, -1, -1, -1
1503942509642,-2, 1, -1, -3, 1, -2, 1, 0
1503942509650,4, 0, 2, 5, 2, 1, 0, 3
1503942509657,-1, -3, -3, 0, -1, -1, 0, -3
1503942509658,-1, -1, -2, 0, -6, -1, -2, -1
1503942509672,2, -1, -2, -3, -1, -1, -2, -3
1503942509680,0, 2, -1, -1, 0, -1, -1, -3
1503942509691,0, 0, 2, 2, 0, 0, 0, -1
1503942509702,-1, -2, 1, 1, 0, 0, 0, -1
1503942509710,-3, -2, -1, -2, 0, -2, -2, -3
1503942509717,-3, -5, -4, -6, -3, -2, 1, -2
1503942509732,-1, 1, -1, -1, -5, 0, -1, 1
1503942509740,0, -1, -3, -6, -6, -2, -3, -4
1503942509748,1, 1, -2, -2, -2, 1, 3, 1
1503942509762,-4, -2, -2, 4, 0, 2, 1, 1
1503942509770,-1, 0, -4, 0, -3, 0, -1, -1
1503942509777,-2, -1, 0, 2, 5, 1, 0, 0
1503942509793,-2, -1, 0, -3, 2, -1, 1, 0
1503942509800,-1, 0, -1, -13, -6, -2, -1, -3
1503942509808,0, -2, -3, -3, -2, -2, -1, 0
1503942509823,-2, 1, -1, -8, -12, -14, -1, 1
1503942509830,0, 4, -3, -2, -1, 2, 3, 1
1503942509844,-3, 2, 0, -1, 2, -2, 1, 3
1503942509852,4, -2, 1, 3, 2, 0, 2, 0
1503942509861,0, -3, 0, 2, -3, 3, -1, -2
1503942509876,-2, 0, 1, 12, 17, 2, -2, -3
1503942509882,-11, -2, -1, -2, 0, 2, 1, 4
1503942509891,-13, -7, -5, -10, -20, -9, -3, -1
1503942509904,20, -7, -4, -10, -42, -8, 4, -8
1503942509912,6, -7, -8, -9, -5, -1, -1, 1
1503942509920,-10, 13, 0, -4, 0, -3, -3, 0
1503942509935,22, 10, -7, 3, -3, -5, -5, -7
1503942509941,2, -1, 2, 6, 19, 5, 3, -4
1503942509950,-8, -1, 1, -1, -2, -4, 1, 1
1503942509964,4, 6, 2, 1, -18, -10, -3, 5
1503942509972,-1, 5, -1, 11, 93, 5, 6, -3
1503942509980,-3, -3, -8, 17, 28, 2, -6, -4
1503942509995,-9, -21, -9, -11, -40, -2, -6, -7
1503942510002,0, -1, -11, 0, 16, 5, -6, -8
1503942510010,-2, 12, 22, 13, 0, 3, 14, 7
1503942510025,-2, 1, 39, 8, -8, 1, -8, 11
1503942510033,-6, -4, 3, -6, -15, -5, -7, -6
1503942510040,0, 4, -13, -6, -2, 8, 1, 5
1503942510055,-3, -4, -13, -10, -5, 20, -10, 9
1503942510062,-5, -10, 6, 2, 24, -4, -10, -11
1503942510070,-5, 12, -1, -5, -26, -5, 5, -11
1503942510085,-5, -15, -12, -7, 4, 13, 2, -13
1503942510092,3, -21, -8, -1, 14, -2, 6, 7
1503942510100,-2, 32, 23, -1, -6, -25, -5, -11
1503942510101,1, -9, -2, 3, -4, -3, 7, 18
1503942510115,-9, -6, -8, 4, -9, -9, 2, -8
1503942510121,4, 56, 32, 8, -5, -8, -12, 1
1503942510130,13, -3, -4, 0, 7, 19, -21, -15
1503942510144,6, -11, -17, -16, -23, -22, 3, 8
1503942510152,5, 3, 0, -7, -9, 19, -9, 10
1503942510160,4, 1, -10, -23, 31, 17, 17, 11
1503942510175,4, -3, 3, -3, -27, -56, 10, -25
1503942510181,6, -28, -37, -8, -13, -32, 0, 19
1503942510190,8, 75, 69, 9, 12, -2, 2, 21
1503942510192,-9, -12, -3, 2, 4, -8, -15, -2
1503942510204,-14, -20, -16, 3, -3, 23, 6, -11
1503942510212,-4, -24, -13, -3, -17, -1, 0, 8
1503942510220,-35, 15, -6, -19, -94, 29, -13, -7
1503942510235,-8, 13, 3, -7, 30, 12, -1, -47
1503942510241,11, 6, 11, 9, -18, 19, 5, -2
1503942510250,-1, 27, 9, -2, -11, 22, 0, -2
1503942510264,7, 24, 0, -4, -36, -6, -13, -16
1503942510272,11, -36, -11, -4, 3, -36, 16, 37
1503942510280,3, -32, -6, 16, 43, 6, 3, 5
1503942510295,2, -1, -9, 1, -5, -9, 7, 18
1503942510302,4, -29, -9, 3, 32, 13, 4, 4
1503942510310,2, 24, -8, -7, -33, 79, 3, 14
1503942510325,-1, 0, 7, 4, -10, -41, -14, -32
1503942510332,7, -8, 14, -1, 21, 49, 2, 80
1503942510340,-2, 48, 31, 9, 0, -31, -6, -11
1503942510355,11, -30, -3, 6, 6, -42, 7, -3
1503942510362,16, -15, -23, -8, 13, 47, 15, 20
1503942510370,0, 13, -7, 3, -10, -11, -4, 5
1503942510384,-1, 41, -5, -12, -17, -19, -9, -46
1503942510394,-14, 28, -20, -13, -3, 11, -14, 10
1503942510400,-14, -13, -2, 12, 18, -38, -3, -11
1503942510415,-18, -23, -11, 8, 39, 1, -15, -64
1503942510421,-1, -50, 7, -10, -18, 25, 18, 18
1503942510430,11, -10, 2, -6, -4, 26, 8, 67
1503942510444,-6, -44, -66, -17, -9, 13, -8, 74
1503942510452,-19, -97, 31, 33, 60, -106, -6, 2
1503942510461,15, 64, 34, 11, -21, 21, -3, -16
1503942510475,-3, 28, 35, 9, -44, 10, 36, 30
1503942510482,-17, 58, -42, 0, -5, -75, 11, -19
1503942510490,6, 12, 14, -11, -48, 63, 77, -90
1503942510504,46, 43, 2, 7, 5, -30, 6, 26
1503942510512,1, -29, -8, -20, 27, -74, -79, -110
1503942510520,-28, 70, 86, 25, -1, 64, 28, -34
1503942510536,62, 40, -57, -34, -78, 72, -63, -69
1503942510542,-5, -3, 78, 76, 100, 71, -54, -55
1503942510550,-30, 23, 73, 31, 127, 127, -19, 127
1503942510564,-38, 20, -20, 1, 15, 66, -20, -10
1503942510573,-87, 86, 45, 3, -27, -59, -38, -49
1503942510580,-3, -113, -49, -95, -55, -87, -10, 26
1503942510598,78, 31, -39, 27, 80, 38, -10, 52
1503942510602,-81, -59, -53, -42, -69, -65, -56, 27
1503942510610,-36, -12, 6, -40, -128, -40, 34, 24
1503942510624,108, 0, 26, 64, -7, -27, 6, 25
1503942510633,62, 4, -29, 35, 95, 14, 90, 26
1503942510640,72, -8, 4, -39, -88, -26, 13, -10
1503942510655,-54, -30, -36, 11, 50, -2, 16, -10
1503942510663,-30, -28, -16, 16, 45, 4, 23, 6
1503942510670,22, 8, -8, -46, -63, -36, -8, -8
1503942510684,-12, 37, 10, 11, 51, 15, -14, -41
1503942510692,-32, -10, 3, -6, -11, -42, -18, -16
1503942510700,-43, -11, -16, -7, 32, 29, -8, 12
1503942510715,91, 4, -2, -25, -35, 46, 13, -21
1503942510722,5, -7, -11, -12, -62, -23, 14, 4
1503942510730,-16, -9, -5, 12, 25, -10, -22, 9
1503942510744,-25, -1, 2, 7, 21, 7, 0, 4
1503942510757,16, 1, 2, 29, -19, -31, 5, 2
1503942510767,-12, -10, -1, 10, 7, -7, 14, 5
1503942510775,-21, -16, -12, -11, -14, -20, -6, -1
1503942510781,32, -6, -7, 0, 10, 8, 10, 6
1503942510798,-21, 0, 5, -15, -18, -17, -4, 2
1503942510804,20, -7, -3, -10, -5, -19, 2, 2
1503942510812,-15, 9, 1, 30, -5, -25, -16, 3
1503942510827,6, -3, 9, 4, 15, -4, -14, -3
1503942510835,-2, -2, -6, 22, 3, -53, -8, -2
1503942510841,4, -1, 7, 2, 36, 9, 3, 6
1503942510842,-3, 4, -6, -6, -7, 10, 9, -5
1503942510857,0, -1, 0, 1, -9, 12, 4, -1
1503942510864,-7, 3, -5, -6, 1, 9, 7, 4
1503942510872,-23, -3, -1, -15, -12, 6, 12, -3
1503942510888,-5, -11, 1, -6, -8, 13, 10, 1
1503942510895,-1, 1, -8, 8, -3, -4, -4, -4
1503942510910,5, 3, 8, 26, 36, 1, 16, -1
1503942510917,6, 1, 2, -1, 2, -8, -1, 2
1503942510925,4, -2, 1, -7, -8, -3, 15, -3
1503942510932,-2, -1, 1, -16, -29, -3, 10, -2
1503942510948,-6, 5, -4, -10, -21, 1, -8, 2
1503942510955,-3, -5, -20, -32, -16, -1, -23, 0
1503942510970,1, 8, 8, -4, -22, 0, 1, 4
1503942510977,-4, -2, 8, -6, 15, 3, -4, -2
1503942510985,-4, -9, 7, 2, 6, -6, -26, -4
1503942510992,1, 2, 11, 21, -16, -31, 7, -3
1503942511008,2, 12, -23, 12, 36, 12, 12, 6
1503942511015,-1, -1, -27, 4, 27, 12, -5, -1
1503942511032,-4, -2, -17, -8, -2, -12, -5, -1
1503942511037,4, 5, 1, 8, 28, 4, -2, -8
1503942511045,0, -3, 5, -7, -17, 3, 1, -2
1503942511052,0, 0, 11, -5, -24, 5, 0, -2
1503942511068,0, 1, 0, -18, 7, 2, 1, 2
1503942511075,-2, -2, 10, 4, -1, 4, 11, 3
1503942511090,1, -6, -4, 0, 0, 0, -7, 1
1503942511099,1, 0, -2, -2, -21, 4, -6, 2
1503942511112,2, 1, 0, -5, -13, -5, 4, -3
1503942511113,-6, -4, -7, -9, -2, 3, -2, -8
1503942511128,-4, -3, 6, 9, -4, -6, -8, -4
1503942511135,-3, -2, -1, -3, -11, -5, 2, 2
1503942511150,0, -6, -1, 10, 19, 5, 7, -4
1503942511157,1, -2, -3, -3, -6, 1, -4, 8
1503942511166,2, 4, -1, 8, 4, 3, 1, -1
1503942511172,0, -5, -11, -13, -10, -6, -4, 0
1503942511188,-2, -12, -13, 3, 9, 0, 1, 1
1503942511195,-2, -9, -6, 5, 3, 2, 2, 1
1503942511210,-11, -3, -3, -1, -4, -2, -5, -6
1503942511217,7, 1, 11, -4, 24, 4, 7, 0
1503942511225,1, 6, -5, -5, -3, 1, 4, 9
1503942511234,12, 13, -4, -3, 1, -2, -10, -10
1503942511248,0, 8, 2, -9, -1, -5, -7, 0
1503942511255,4, 10, 2, 6, -13, -3, 5, 2
1503942511270,-7, 10, 10, 1, 11, 7, 5, -11
1503942511277,13, 9, -3, -19, -20, 0, 0, -5
1503942511285,-7, 2, 1, -8, -5, 1, 3, -6
1503942511295,-9, -12, -1, -3, -9, 2, -8, 3
1503942511308,-1, -14, -12, -5, 5, -1, -4, -28
1503942511315,-8, -2, 0, 3, 0, -8, 2, 15
1503942511330,13, 6, -10, -6, -1, -4, -4, 5
1503942511337,1, 2, -2, -8, -4, 0, -5, -9
1503942511338,-16, -8, -7, -3, -13, -1, -1, -3
1503942511346,0, -2, -3, -12, 11, 0, 9, 2
1503942511352,-13, -2, -3, 1, 5, 3, -6, 8
1503942511368,-7, -4, 5, 7, -16, -7, -3, -6
1503942511377,19, 11, 1, -1, 4, -4, 5, -12
1503942511390,9, 2, 6, -5, 5, 0, -7, 21
1503942511397,2, -10, -1, -1, -10, -1, -3, 31
1503942511405,2, 2, 8, 13, 1, 3, 5, 7
1503942511412,-26, 0, -1, 1, 4, 0, 6, 0
1503942511428,25, 8, -9, -5, -9, 5, -1, 12
1503942511435,-21, -2, -4, 4, 6, 0, -3, -22
1503942511451,-11, 4, 15, 7, 27, 7, 3, 20
1503942511457,-5, 0, -1, -1, 12, 1, -8, -53
1503942511465,-63, -15, -13, -5, -12, -8, -8, -15
1503942511472,-19, 1, 1, 1, 3, 1, -4, 11
1503942511488,19, 2, -1, 16, -13, -4, 11, -5
1503942511495,7, -16, 0, 1, 0, 1, 8, 22
1503942511511,-6, -35, -12, -5, -8, -1, 2, 2
1503942511517,-2, 0, -9, -11, -8, -4, -6, 6
1503942511525,8, 8, 2, 3, 7, 1, 1, 5
1503942511532,-24, -14, -4, -6, 9, -2, -1, -14
1503942511548,-8, 2, 5, -2, -3, -1, -6, -22
1503942511555,18, 2, 5, -1, -4, -4, -5, -37
1503942511570,2, -2, -3, 1, -2, 0, -12, -8
1503942511577,10, 7, 2, 15, 3, 1, 4, 16
1503942511585,6, 9, 4, -3, 2, 0, -2, 10
1503942511592,7, 11, 2, -1, -3, -1, -2, 7
1503942511608,-7, 8, -2, 2, 0, -1, 0, 9
1503942511615,12, 6, 1, 16, 0, 1, -4, 0
1503942511630,13, -15, -2, -3, 1, -1, 2, 7
1503942511642,14, 6, 7, -8, 1, -3, -5, 15
1503942511645,9, 7, 0, 1, 5, 3, 0, 0
1503942511652,-12, -9, -5, -2, -2, 0, -3, -9
1503942511669,-2, -3, -6, -4, -6, -2, -11, -2
1503942511670,2, -2, -2, -12, 0, -2, -7, 3
1503942511675,7, 15, 8, 15, 5, 2, 2, 0
1503942511690,-7, 8, 7, 7, -2, -4, -5, -3
1503942511697,-10, -12, -4, -9, -3, -1, 6, 14
1503942511705,-16, 3, -12, -4, -1, 0, -10, -26
1503942511720,5, 7, -1, -5, -1, 0, 4, 22
1503942511728,19, 14, 8, 19, 0, -1, 2, -7
1503942511738,-11, 0, -3, -2, 0, -3, -13, -22
1503942511750,-22, -7, -3, -5, -5, -3, 3, -18
1503942511757,8, 7, 6, 3, 2, 0, 1, -6
1503942511765,24, 15, 8, 8, -1, -1, 5, 2
1503942511780,-11, -26, -17, -15, -2, 3, 2, -13
1503942511788,-1, -14, 2, 4, 5, 0, -9, -16
1503942511795,7, 11, -2, 1, -3, -2, -3, -11
1503942511810,-1, -4, -8, -4, 0, -1, 0, -22
1503942511817,-7, 0, 8, 6, 4, 1, 3, 2
1503942511825,31, 18, -6, -11, -3, 0, 6, 17
1503942511840,10, 1, -5, 0, -4, -1, 1, 7
1503942511848,13, -3, -3, -1, 1, 0, -3, 0
1503942511855,-20, 7, -5, -1, -2, -2, -4, -12
1503942511872,7, 0, -10, -7, -3, -2, 0, 11
1503942511877,29, 15, 4, -1, 2, -3, -7, -1
1503942511885,0, 0, 1, 0, -5, -1, 1, -12
1503942511900,7, 0, -4, 2, 1, -1, 5, 10
1503942511908,21, -25, -17, -14, -4, -3, -5, -26
1503942511915,-5, 0, 1, -6, -4, -1, -2, 20
1503942511930,-41, -7, -4, -4, -1, 0, 2, 16
1503942511938,-14, -17, -13, -2, 2, -1, 3, 3
1503942511947,-13, 16, 5, 3, 0, -1, -1, 16
1503942511960,-3, -10, 6, -4, 0, 3, 10, 12
1503942511968,-18, -9, -4, -1, 0, 2, -7, -21
1503942511975,20, 6, 2, 2, -1, 0, 0, -14
1503942511990,-6, -12, 0, -1, -2, 3, 21, 21
1503942511997,29, -6, -2, -3, -1, -1, -8, -24
1503942512008,-16, -14, -2, -6, -6, -5, -13, -5
1503942512020,-7, -6, -1, 0, 3, 1, -3, -3
1503942512028,-9, 11, 1, -4, -13, 3, -5, 3
1503942512035,6, 5, 1, -5, -3, -23, -5, 24
1503942512050,-10, -9, -5, -5, 11, 5, 8, -18
1503942512057,-5, -14, 2, 3, 44, 40, 26, 11
1503942512065,32, -2, -2, 0, 2, -6, -6, 30
1503942512080,-7, 8, 7, -3, -27, -14, -10, -5
1503942512088,-33, -24, 0, 4, -1, -2, 3, -9
1503942512095,-8, -1, -4, 0, -5, -2, -2, 2
1503942512111,-1, 10, 3, -2, -2, -4, -5, 11
1503942512117,-50, -29, -11, 2, 3, 3, -3, -6
1503942512125,7, 1, -1, 5, 0, 2, -3, 11
1503942512140,16, 16, -2, -3, -5, -2, -1, -1
1503942512148,-1, -1, -3, 1, -1, -2, 1, 0
1503942512155,-16, -10, 0, 0, -8, -6, -6, -7
1503942512171,46, 15, 6, 9, 8, 1, -4, 0
1503942512182,10, 23, -1, -8, -1, -5, 6, -3
1503942512185,-3, 14, 0, -2, -13, 1, 4, 3
1503942512200,14, -4, -14, -7, -2, 2, 3, 2
1503942512208,1, 9, 5, 8, -24, -1, 3, 0
1503942512215,-2, 9, -4, -18, 6, -5, -7, -3
1503942512230,-16, -10, -8, -24, -21, -5, -2, -5
1503942512237,2, -6, -4, -3, -7, -1, -3, -3
1503942512245,3, 14, 11, -2, 10, -5, -11, -1
1503942512260,15, -8, -2, 6, 7, 4, -7, -7
1503942512268,-24, -17, -3, 7, 9, 2, 7, -2
1503942512275,-5, -3, 0, 8, 9, 0, -1, 5
1503942512290,10, 16, 2, 11, 25, 1, 5, 7
1503942512297,-4, -6, -1, 5, -7, -2, -4, -1
1503942512308,-5, -12, 10, 5, 13, 3, 0, -1
1503942512320,3, 15, 11, -2, -12, -1, -2, -2
1503942512328,-12, -10, -3, 5, -12, 0, -6, -1
1503942512335,-4, -6, -8, -1, -2, 1, 0, -6
1503942512351,7, -11, 3, -6, 3, 0, -4, -9
1503942512357,3, -1, -11, -8, -27, -9, 3, -2
1503942512365,-3, 10, 0, 0, -5, -12, -11, -2
1503942512380,-2, 3, -3, -3, -25, -11, -14, 0
1503942512394,3, -5, -11, -28, -11, -2, 2, 2
1503942512396,-1, -7, -2, 5, 4, 3, -2, 1
1503942512411,14, 21, -5, 3, -3, -1, 11, 2
1503942512417,-2, 5, 4, 5, 18, 5, 15, 0
1503942512425,8, 7, 0, -7, -2, 1, -7, 5
1503942512445,-3, 2, 2, 4, 9, 1, -4, -4
1503942512448,-3, -16, -12, -1, -5, 3, 10, -5
1503942512455,-14, -10, 2, 7, 0, 0, 1, -4
1503942512470,2, -5, -8, 3, -3, 0, -7, 25
1503942512478,-22, 4, -6, 6, -11, -2, -1, -3
1503942512485,-13, -1, -5, 0, 4, 1, 4, 0
1503942512500,-1, -8, -4, -8, -4, -4, 2, 1
1503942512510,-4, 4, 0, 2, -1, -4, -10, -19
1503942512515,11, -3, -2, 5, 7, -1, -3, -5
1503942512530,12, 7, -4, 4, 8, 3, 3, -9
1503942512537,-2, 5, -3, 0, 25, 2, 4, 2
1503942512545,-5, 0, -2, 2, 3, 4, 2, 8
1503942512560,-10, 5, 11, 2, -11, -1, 0, 17
1503942512568,-8, -7, -5, -7, -18, -5, 0, 0
1503942512576,-1, -3, -3, -4, -1, -1, 4, 2
1503942512590,-4, 6, 4, 5, -5, 3, 0, 0
1503942512597,6, 2, -6, -4, -3, 3, -1, -5
1503942512605,-4, -7, -5, -3, 14, -3, -2, -1
1503942512620,6, -3, -3, 0, -2, -2, -10, -2
1503942512628,6, -1, -2, -3, 1, -1, 3, -6
1503942512643,8, 6, -5, -7, -10, -4, 2, 0
1503942512652,-1, 3, 0, 2, 14, -1, -5, 3
1503942512657,7, 5, -1, -1, 1, 0, 4, 0
1503942512672,-4, -6, 5, 2, 41, -1, -3, -10
1503942512680,10, 8, -6, -12, -19, -3, -1, 2
1503942512681,-9, -2, 2, 6, 6, 1, -6, 3
1503942512688,-2, 3, -5, -3, -14, 1, 2, -5
1503942512702,6, -1, 2, -4, -10, -2, -5, -8
1503942512711,3, -1, 2, 12, 9, 2, 13, 3
1503942512717,-1, -7, -6, 2, -1, 0, -10, -2
1503942512732,3, 0, -1, -7, -14, -4, -4, 1
1503942512740,-13, 3, 3, 2, 5, 2, 16, 5
1503942512749,-3, 6, 2, -1, -9, -7, -10, 5
1503942512762,1, -2, -1, -9, -11, -2, -9, -6
1503942512770,-1, 6, -3, 1, 6, 3, 22, 3
1503942512778,11, 1, -2, 0, 20, 8, -8, 4
1503942512792,3, -4, -4, -10, -32, -5, -11, -15
1503942512800,2, -4, -4, 11, 9, -3, 2, -11
1503942512808,-4, -9, -8, -4, -4, -3, -3, -21
1503942512822,-7, -7, -1, -7, -32, -10, -4, 4
1503942512830,-8, -6, -2, 1, 4, 0, 2, 8
1503942512837,-7, -1, 7, 4, 7, -4, 3, 3
1503942512852,10, 11, 2, 7, 0, -1, 0, 2
1503942512860,3, -22, -8, -6, 2, -2, -4, -4
1503942512868,-2, -5, 0, 0, 17, -1, -12, -2
1503942512883,-3, 9, 6, 11, 49, 13, -3, -1
1503942512890,4, -19, -11, -8, -5, -3, 4, 6
1503942512897,7, -4, 3, 1, -10, -9, -12, -5
1503942512912,-4, -10, -6, 3, 2, -1, 3, -3
1503942512921,4, -5, -25, -18, -15, -26, 3, 0
1503942512928,16, -23, 12, 2, -6, -34, -1, 5
1503942512945,-8, -8, -6, -5, -5, -37, 2, 12
1503942512946,20, 20, 7, 2, 1, -34, 1, -1
1503942512950,5, 12, 19, 3, -4, 6, -1, 0
1503942512957,10, 9, 8, -8, -9, 18, 2, 14
1503942512972,-2, -1, -3, -5, -13, 23, -7, -1
1503942512980,-69, -21, -14, -7, -15, 20, 1, 1
1503942512988,7, -2, -5, -8, -19, 7, -3, 1
1503942513002,20, 23, 13, 9, 0, 11, -9, 7
1503942513012,-22, -36, -17, -6, -2, 5, -9, -3
1503942513017,-13, 0, -11, -6, -13, 3, 0, 1
1503942513032,-9, 18, -15, -5, 5, -4, -2, 5
1503942513040,23, 18, -6, -1, 7, 6, 3, -5
1503942513048,-12, 26, 11, -1, -1, 2, 3, 9
1503942513062,6, -16, -6, -8, -11, 2, 9, 1
1503942513070,-6, -9, -6, -1, -18, 0, -7, -8
1503942513080,-5, -24, 1, 16, 30, 2, 9, 5
1503942513092,-23, -11, 0, -5, -6, -2, 0, 10
1503942513100,-8, 4, -4, -4, -5, -6, -5, -8
1503942513108,-15, 16, 5, 5, 14, 4, -14, -5
1503942513122,3, 3, 5, 0, -3, 0, 0, -7
1503942513130,22, 13, -5, 0, 4, -2, 6, 12
1503942513137,-11, -18, -9, -5, -8, -2, -7, -7
1503942513153,29, 12, -5, 4, 14, 1, 5, -12
1503942513160,-15, 2, 0, -3, 16, -2, -5, 0
1503942513168,8, 3, 0, 1, -2, -2, -9, 7
1503942513183,0, 0, -2, 7, 4, -5, 1, 0
1503942513190,9, -1, 1, -2, 1, 6, 9, -8
1503942513197,7, 6, -3, -2, -4, -1, -7, -3
1503942513213,-1, 2, -2, 5, 4, 5, 2, -3
1503942513220,22, -4, 4, -4, -8, 0, 0, 3
1503942513228,-9, 20, 3, -2, -7, -5, 2, 4
1503942513242,-28, -5, 6, 5, 10, 4, 2, -2
1503942513250,1, 9, -1, -2, -1, -3, -2, -16
1503942513257,13, 2, -1, -6, -6, -2, -2, -6
1503942513272,-5, 2, -4, -2, 0, -3, 3, -2
1503942513282,3, 2, -3, -4, -9, 0, -1, -3
1503942513288,-3, -27, -12, -5, -8, -2, -3, -6
1503942513302,-5, 12, -5, 1, 3, 3, 2, 5
1503942513310,-16, -11, -7, -10, -1, -8, -8, 2
1503942513319,-7, 2, 2, 2, -1, 3, -1, -1
1503942513332,22, 1, 13, 4, 24, 5, 4, 2
1503942513340,-6, 13, 0, -2, -6, -3, 1, 4
1503942513349,-7, 5, 5, -6, -22, -7, -3, 12
1503942513362,-1, -10, -4, 6, 7, -1, 5, 4
1503942513370,-6, -1, -3, 1, -4, -1, 0, -3
1503942513377,-6, -1, -13, -11, -14, -7, -10, -16
1503942513392,3, 0, -6, 4, -5, -9, -6, 1
1503942513399,24, 21, -1, -7, -20, -9, -3, -5
1503942513408,18, 6, -5, -7, -32, -15, -2, -8
1503942513422,1, -7, 3, 9, 28, 22, 8, 15
1503942513430,-9, -4, -7, -5, 3, 1, -6, -13
1503942513437,-5, -13, 2, 0, -7, -10, -4, -3
1503942513452,-8, 3, 1, 6, 19, 5, 8, 8
1503942513460,-7, -11, 2, -4, -6, 0, -11, -17
1503942513468,21, 21, -1, -6, -11, 3, 11, -5
1503942513483,4, -11, 3, 1, 1, 0, -3, -10
1503942513484,6, 0, -2, 2, 2, -2, 5, 1
1503942513491,1, -11, 7, 6, 8, 1, -3, 0
1503942513497,5, 5, 0, 1, -12, 3, -6, -1
1503942513512,-11, 4, 0, 5, 4, 5, 11, 3
1503942513520,3, -13, -2, -1, -4, -7, -12, -6
1503942513528,-6, -11, -1, -3, -6, -9, -5, 15
1503942513542,-6, 13, 3, 5, 10, 11, -1, 10
1503942513552,-18, -16, -4, -1, 15, 7, 8, 0
1503942513558,-8, 6, 2, -3, 4, -4, -2, 5
1503942513572,0, 3, 0, -2, -9, 1, -2, -9
1503942513579,-35, -18, 1, -3, -4, -5, 5, -8
1503942513595,-3, 1, -1, 0, -1, -11, -10, -2
1503942513602,34, 14, -7, -4, 4, 2, -5, -12
1503942513610,2, -1, -6, -4, 15, -8, -7, -3
1503942513625,5, 3, -4, 3, 3, 8, 11, 6
1503942513632,30, 5, -8, -9, -13, 3, 6, -8
1503942513640,-53, -30, -8, 1, 3, -4, 8, -6
1503942513661,5, -11, -2, -5, -7, -3, -6, -1
1503942513662,-3, 0, -6, -4, -2, 2, 2, 6
1503942513670,-10, 3, 6, 11, 3, 3, -5, -3
1503942513685,21, 2, -4, -2, -4, -5, 3, 8
1503942513692,0, 1, -3, -8, -2, -1, -1, 11
1503942513700,9, 12, 6, 0, -3, -6, 3, 21
1503942513718,-9, 0, 5, 7, 0, 4, 1, -7
1503942513722,0, 2, -1, 8, -17, 1, 0, -5
1503942513730,-1, -38, -6, -2, -1, 0, -25, 2
1503942513744,11, 6, 4, -5, -4, -11, -8, 5
1503942513753,2, 4, 2, 0, 2, 3, 14, 5
1503942513760,-2, -13, -7, -5, 5, -2, -7, -13
1503942513775,-23, 4, 5, -1, 5, -3, 5, 8
1503942513785,-1, -1, -3, -2, 1, 0, -17, -7
1503942513790,-3, 9, 4, 2, 0, -7, -7, 11
1503942513804,-2, -5, 3, 19, 38, 13, 9, 3
1503942513812,-4, 13, -4, 2, -7, 0, -7, 1
1503942513820,30, 14, -4, -12, -10, -3, -4, -5
1503942513834,-8, 7, 5, 8, 13, 1, 7, -4
1503942513842,-5, -28, -6, -5, -21, -6, 9, -5
1503942513855,34, -8, -1, -9, -9, -10, -3, 10
1503942513864,-11, 11, -7, -4, 4, 2, 0, -29
1503942513872,-11, 2, -5, -8, 12, 12, 0, -10
1503942513880,-6, 2, 4, 0, -5, -4, 7, 2
1503942513894,20, 0, 5, 5, -6, -9, 0, 1
1503942513895,-13, -16, -6, -12, 9, 0, -11, -11
1503942513902,-10, 11, 4, 3, 2, -22, -9, 14
1503942513910,40, 34, 7, 37, 16, 4, 3, -6
1503942513924,0, 0, 1, 0, 3, 4, 4, -2
1503942513932,11, -11, -2, -7, -16, 0, 4, 14
1503942513939,17, -11, -7, -9, -15, -2, 0, -1
1503942513955,-35, 1, -10, -8, -6, -3, -4, -3
1503942513962,6, -11, -6, -10, -12, 4, 5, 6
1503942513970,10, 6, 5, 1, 9, 4, -3, 10
1503942513986,-22, 8, 1, -7, 2, 0, -2, -3
1503942513992,-2, 3, -3, 2, -1, 9, -3, -7
1503942513999,-25, -12, -4, -3, -6, -8, -10, -10
1503942514000,-7, -3, 1, -2, -5, 2, 6, 8
1503942514015,-31, -21, -7, -8, -12, -9, 4, -16
1503942514023,-3, -2, 6, 9, 23, -1, -13, -2
1503942514030,9, 1, -5, -1, 1, 3, 7, -3
1503942514044,-2, 1, -8, -2, -6, -4, -1, -16
1503942514053,0, 2, -3, -7, 0, -1, -5, -12
1503942514060,-14, 1, 4, -1, -1, 8, 2, 6
1503942514074,2, 3, -11, -9, -8, -4, -14, -28
1503942514082,-11, 8, 19, 8, 5, 2, -3, 2
1503942514090,-25, -17, -3, 3, -2, -2, 0, -4
1503942514104,6, -1, -7, -3, -5, 0, -2, -8
1503942514112,-3, 4, 3, 1, 1, 3, 13, 29
1503942514126,-19, -18, -7, 0, -5, -5, -7, -3
1503942514134,-12, -18, -11, -5, 0, 8, 20, 9
1503942514142,-8, -3, -13, 3, -4, -2, -5, -8
1503942514150,12, -7, 5, -1, -5, -5, -4, -1
1503942514164,24, 2, -7, -5, -5, -3, -1, -3
1503942514172,24, 9, -4, -4, -4, -3, 0, -3
1503942514179,-1, 3, -1, -5, -5, 2, -7, 3
1503942514195,-9, 5, 2, -6, -2, -1, 0, -5
1503942514202,9, -3, -4, -6, 14, -5, -17, 1
1503942514210,-7, 10, 5, 2, 6, 11, 3, 0
1503942514224,13, 1, -2, -2, -13, -4, 10, 5
1503942514232,-15, -11, 6, -1, -6, -11, -7, 6
1503942514239,-4, -5, -1, 0, 17, 2, 5, 4
1503942514255,10, -11, -10, -5, -10, -9, 0, -1
1503942514264,-2, 3, -10, -1, -9, -6, 0, -6
1503942514270,5, 12, 3, 11, -3, -2, -2, 1
1503942514284,5, 10, 12, -1, -20, -1, 7, 0
1503942514293,15, 5, 2, -4, -5, 0, 3, 1
1503942514299,6, 7, 23, 10, 11, 6, 8, 5
1503942514314,-12, -12, -8, 3, -20, -5, -7, -9
1503942514322,3, 4, -1, -1, 0, 2, -4, 5
1503942514330,-17, 11, 4, 16, 24, 9, -5, -7
1503942514344,-8, 25, -2, 8, -11, 9, 14, -2
1503942514353,-5, -6, -4, -14, -5, -2, 6, 3
1503942514360,20, 0, 1, -1, -6, -9, -11, 2
1503942514374,-9, 1, 3, 4, 9, -1, 2, 11
1503942514382,-8, -22, -10, -4, -2, -4, 0, 3
1503942514390,-3, -11, -6, -6, -1, -3, 2, 2
1503942514404,-5, -1, -7, -10, -12, -5, -10, -7
1503942514412,-1, 9, 0, 3, 12, 6, -5, -7
1503942514422,3, -11, -12, -7, 1, -1, -4, -31
1503942514434,6, 12, 5, 4, 8, 0, 1, -9
1503942514442,-9, 3, -3, -2, 10, 4, 0, 23
1503942514450,14, 5, -2, -6, -9, -9, -8, -20
1503942514464,-6, 3, 2, 0, 5, 3, 11, 7
1503942514472,9, 18, 5, 2, 5, -1, -2, 5
1503942514479,11, -2, -8, -20, -4, -3, -9, 8
1503942514495,-11, -13, -7, -2, 1, -1, 9, 4
1503942514502,-5, -6, -4, -5, -21, 3, -3, -11
1503942514517,4, -13, 4, 9, -12, -5, -1, 0
1503942514524,-13, 2, 0, 7, 11, 0, 11, -7
1503942514532,3, -8, -2, 0, 4, -2, -5, -7
1503942514546,0, 4, -3, -4, -15, 1, -10, -1
1503942514557,-6, -15, -18, -8, 1, -1, -13, 5
1503942514562,-7, 16, 2, 4, 6, 2, 4, -22
1503942514577,-17, 1, -2, 5, -17, 1, 5, 12
1503942514584,-9, -2, -1, 3, 15, 1, -2, 6
1503942514592,-23, -9, 0, -1, -3, 1, -3, 0
1503942514606,1, 8, 8, 4, 24, -1, -1, 18
1503942514614,60, 10, 7, -5, 1, 2, 1, 10
1503942514624,-2, -2, -4, -3, -7, -2, 3, 11
1503942514637,-6, 2, 0, -1, 6, 1, -9, -4
1503942514644,19, 1, -6, -2, -13, -5, -6, 4
1503942514652,19, 7, 0, 0, 2, 1, 4, -10
1503942514666,-28, -2, -2, 6, 16, 2, -3, -1
1503942514674,-14, -3, -1, -2, 6, -1, 0, -9
1503942514682,-19, -19, -12, 0, -3, 1, 4, -18
1503942514697,-14, 12, -2, -2, -5, -2, -3, 2
1503942514704,6, -8, 6, 1, 17, 6, -4, -9
1503942514712,-18, -5, -1, -2, -1, -9, -2, 9
1503942514726,14, -23, -7, -1, -2, 4, 12, -2
1503942514735,24, 15, 5, -3, 0, -2, -2, -1
1503942514742,9, 8, 4, 2, -4, -9, -6, 1
1503942514759,0, 6, -7, -4, -14, 9, 15, -3
1503942514764,-1, 12, -10, -7, -15, -4, 0, -8
1503942514772,25, 11, 6, 1, 5, -14, -1, -13
1503942514786,-45, -22, 4, 5, 14, 3, 5, 5
1503942514795,6, -20, -7, -3, -4, 5, -4, -8
1503942514802,-15, 2, 2, -4, -10, -6, -1, -2
1503942514817,-11, 9, 5, 2, 3, 2, -3, -2
1503942514826,42, 6, 1, 4, 5, 0, -6, -2
1503942514832,-13, -17, 0, -2, -4, -3, -1, 4
1503942514846,3, -5, -11, -3, -8, -2, 3, -2
1503942514854,-5, 0, -13, -9, -5, -3, -7, -13
1503942514862,8, 6, 1, 2, -2, -2, -1, 7
1503942514877,-1, 18, 10, 5, 6, 5, -2, 5
1503942514884,45, 9, 2, -3, -2, -2, 2, 12
1503942514893,-11, -10, 1, 1, 7, 1, 8, 35
1503942514906,0, 0, 7, 3, -5, -3, -11, 60
1503942514915,-23, 0, -4, -4, -3, -1, -1, -6
1503942514922,25, 3, -3, -4, 0, -1, 10, 1
1503942514944,-27, -5, -9, -4, -4, -3, -4, -32
1503942514960,-1, -3, -2, 1, 0, 0, 2, 4
1503942514967,-12, -9, -9, -9, -8, -4, -2, -15
1503942514974,-4, -6, -7, 2, -3, 2, -11, 8
1503942514982,12, 7, 4, 2, 3, 0, -4, -20
1503942514998,-9, -4, -2, -4, -6, 0, 5, -17
1503942515005,26, 8, 0, 2, -1, -2, -5, -3
1503942515012,6, -3, -3, -1, 0, -1, 3, 14
1503942515027,-19, -6, -1, 1, 2, 6, -2, 7
1503942515035,-4, 5, -2, 0, 0, 0, 1, 7
1503942515042,-17, -20, -4, -1, -1, -2, 1, -8
1503942515057,2, -5, 1, 3, 4, 1, -4, -17
1503942515065,11, -5, -6, -4, -3, -3, 1, 13
1503942515072,8, 0, 4, 5, 2, -3, -2, 15
1503942515087,1, 11, -3, 4, 10, 3, -5, 4
1503942515095,7, -8, -9, -6, -2, 6, 1, -13
1503942515096,23, 12, 2, -2, -2, -2, -2, 8
1503942515102,19, -4, 2, -3, -5, -5, 1, 1
1503942515117,-4, -8, 0, -1, -2, 2, -1, -9
1503942515127,-1, 1, -5, -2, 0, -3, 1, 6
1503942515133,-1, 0, 0, -2, -3, -4, -1, -7
1503942515146,-11, -2, 4, 3, 1, 2, 1, 1
1503942515154,-13, -2, -1, -11, -17, -4, -3, -1
1503942515162,-5, -2, 4, 16, 4, 1, -2, -9
1503942515177,-6, 4, -1, 17, 1, 1, 0, -4
1503942515184,-8, 6, -1, -3, 0, 1, 5, -8
1503942515197,6, -6, -1, -7, 5, 1, 2, -3
1503942515206,-31, -10, -6, -8, 4, 1, -6, -12
1503942515214,-24, -15, -14, -3, -2, -1, 1, -9
1503942515222,19, 5, 1, -1, -4, -5, -6, -6
1503942515237,-12, 1, 7, 13, 2, -1, -5, -7
1503942515244,-14, 9, 5, -2, 11, -2, -1, -2
1503942515253,11, 6, 3, 5, 9, -1, -1, 1
1503942515266,7, -1, -4, -15, -18, 1, 5, 3
1503942515274,-8, -5, -1, -9, -5, 0, -6, -16
1503942515282,3, 0, -7, -7, 1, 1, 1, -1
1503942515297,-3, 15, 3, 1, 2, 0, 3, 7
1503942515305,11, 12, 3, 3, -3, 0, 5, -2
1503942515313,10, -2, 7, 18, 3, -1, 2, 10
1503942515329,-15, 1, -5, -4, -7, -3, -3, 1
1503942515335,-11, -7, -24, -37, -32, -1, 3, 1
1503942515342,-37, -17, -3, 14, -6, -3, -4, 4
1503942515357,18, 4, -6, -9, -6, -3, -5, 1
1503942515365,9, -1, -1, -10, -1, -3, 2, 4
1503942515373,-29, 0, 1, 12, 6, 2, 1, -5
1503942515386,3, 16, -5, -22, -6, -3, -2, -4
1503942515396,10, -3, 9, 15, 17, -1, -8, -3
1503942515402,-5, -8, -6, 7, -3, -1, 1, -4
1503942515417,26, 2, 10, 2, 4, 1, -7, 2
1503942515425,-10, 1, 12, 0, 6, 1, -1, 1
1503942515440,-4, -4, 5, 3, 9, 3, 1, -6
1503942515446,39, -7, 5, 13, 15, 0, -3, -6
1503942515455,9, -1, -6, -7, -7, -9, -1, 2
1503942515469,-14, -4, -3, 8, 3, 7, 2, 1
1503942515477,-17, -17, -18, -49, -18, -4, -5, -17
1503942515484,17, -7, 7, -6, -1, -2, 0, 9
1503942515501,17, 6, -14, -11, 4, 5, 10, 10
1503942515507,-4, -5, -13, -4, 0, 0, -4, -3
1503942515514,-14, 1, 1, 12, 6, -1, 4, 8
1503942515530,-6, -2, -6, -4, -15, -5, -8, 0
1503942515539,-9, 6, 3, 9, 16, 3, 5, -4
1503942515545,-7, 7, 12, 1, 0, -3, -8, -16
1503942515560,-7, 15, 9, 19, -2, 0, -2, -3
1503942515567,-13, 0, -3, 5, -1, 1, -4, -3
1503942515575,21, 3, 11, 10, -5, 1, 1, 2
1503942515589,-9, -4, -6, 3, -3, 2, 5, 8
1503942515597,27, 2, 1, 11, 0, -4, -1, 2
1503942515606,35, 14, -4, -4, 2, -1, -1, 2
1503942515620,-11, 2, 21, -8, 2, 2, -6, -4
1503942515626,-5, 10, 4, 5, 7, 1, -3, 6
1503942515635,-5, 3, 1, -10, 0, -1, -1, 1
1503942515649,-12, 7, 17, 5, 2, 2, 7, 2
1503942515657,3, -5, -5, -7, -7, -1, 2, 2
1503942515665,29, -6, -7, -5, -5, -2, 4, 1
1503942515680,-14, -6, -19, -12, -8, -3, 0, 0
1503942515686,-25, -12, -1, -3, -1, 3, 3, -6
1503942515694,23, -3, -14, -11, -10, -6, -3, 1
1503942515709,-64, -13, -12, -5, -2, -3, -2, 2
1503942515717,-19, 0, 4, 17, 1, -3, -2, -2
1503942515724,31, 2, 3, 2, -2, -1, 3, 0
1503942515741,-25, 1, -1, -17, -8, -4, -3, -14
1503942515747,-14, 6, 3, 0, 5, 2, -1, -9
1503942515754,-10, -4, -4, 7, 4, -1, 3, 12
1503942515755,24, -3, -17, -3, 0, 1, -5, -10
1503942515770,4, 1, -3, 6, -3, -4, -4, -1
1503942515777,2, 0, 9, 19, 7, 5, 6, 6
1503942515784,-10, -11, -9, -8, -6, -2, -1, 4
1503942515800,-24, -5, -2, -8, 2, -4, -3, 0
1503942515807,-77, -9, 9, 9, 3, 0, 1, -19
1503942515814,20, 7, -17, -12, -3, -3, 0, 7
1503942515815,12, 10, 22, 14, 7, 3, -9, -15
1503942515829,29, -1, -9, -15, -5, -8, -6, 20
1503942515838,1, -6, -9, -8, -1, -1, 7, 18
1503942515844,1, -4, 5, 5, 4, 1, -2, 6
1503942515845,16, 11, -4, 2, 1, 2, -2, 1
1503942515859,-13, 1, -2, -5, 0, 1, -1, 0
1503942515866,22, -6, -14, -10, -6, -2, 0, -7
1503942515875,-16, 2, -7, 4, 1, -3, 0, -2
1503942515889,-1, -2, 0, -3, 4, -1, -4, -7
1503942515900,-3, -6, -15, -5, -4, -1, 3, 5
1503942515905,-6, 1, 9, 8, 7, 1, -3, -10
1503942515919,14, -3, 2, 4, -2, -2, -2, 4
1503942515926,-13, 7, -1, -1, -2, 2, 7, 0
1503942515934,1, 6, -5, -7, 0, -3, -4, -7
1503942515949,-14, 5, 0, -3, 1, -2, -10, -5
1503942515957,19, 3, 0, 4, -1, -1, -2, 3
1503942515966,-14, -14, 1, 2, 0, -1, -3, 2
1503942515967,9, 13, -5, -14, -8, -3, -2, -3
1503942515979,-12, -5, 3, 18, 0, 2, -4, 2
1503942515986,17, -10, -4, 3, -1, -2, -6, 8
1503942515994,38, 1, 12, -1, 4, -1, 0, -1
1503942516009,0, -2, 4, 7, -2, -3, -2, -19
1503942516017,-10, -4, -14, -10, -9, -1, 4, -2
1503942516024,-7, 1, 4, -2, 3, -1, -1, -6
1503942516040,-22, -13, 0, -1, 5, 0, -4, -3
1503942516046,8, -1, -5, -11, -2, 0, 4, 7
1503942516054,6, 1, 4, 12, 18, 3, -2, 2
1503942516069,-4, -7, -7, -1, -6, -1, 5, 5
1503942516077,-18, 2, -2, 17, 5, 1, 1, -3
1503942516084,10, -1, -13, -4, -4, -1, -3, 3
1503942516101,-19, -4, -5, -16, -4, -5, 1, -3
1503942516106,21, 1, 6, 10, 5, 2, -3, 2
1503942516114,12, 2, 1, -9, -10, -3, 1, 6
1503942516129,-2, -3, 5, 13, 20, 3, 2, 0
1503942516139,3, -5, -2, 7, 23, -1, -4, 1
1503942516145,-5, -1, -4, -11, 9, -2, 4, 1
1503942516159,-14, -7, -6, -10, -8, 0, -2, -7
1503942516168,6, 0, -2, 2, -5, -2, -3, 2
1503942516174,-1, -1, -7, -15, -22, -4, 0, 1
1503942516189,20, 5, 3, -5, -7, -1, -3, -1
1503942516197,16, 6, 8, 20, 20, 1, 1, 2
1503942516205,-9, -3, -2, 12, 3, 2, 1, 3
1503942516220,-8, -5, -1, 0, 7, 0, -2, 2
1503942516226,-8, -2, 0, 10, -8, -2, 1, -1
1503942516235,1, 2, -8, -1, -7, -1, 6, -6
1503942516249,-8, 7, -3, -1, -3, 1, -1, 3
1503942516257,16, 4, 3, 15, -9, -2, -3, -1
1503942516273,17, -8, 2, -4, -3, -5, -3, 0
1503942516280,6, -3, -11, -20, -19, -4, -1, -2
1503942516288,8, -11, -4, 2, -4, 1, 0, 3
1503942516294,-32, 1, -1, -7, -1, -3, -1, -6
1503942516295,22, 12, 8, 6, 15, 3, -1, 13
1503942516310,13, 1, -4, -5, -1, 1, 0, -1
1503942516317,-22, 9, 5, -1, -2, 3, -1, -6
1503942516333,-21, 9, 0, -15, -4, -3, -2, -1
1503942516340,4, -1, 0, -8, -10, -4, -6, -3
1503942516348,23, 5, -2, -9, -7, -2, 2, -5
1503942516357,-11, -3, -3, 0, -6, -2, -1, -2
1503942516371,-22, -14, 7, -1, 5, 2, -5, -4
1503942516378,-7, -9, -6, -2, -19, 2, -3, 1
1503942516392,11, 3, -1, -5, 14, -1, 7, 11
1503942516399,-12, -5, -4, -3, 8, 3, 3, -9
1503942516408,-6, -2, 1, 4, -15, -6, -2, -3
1503942516422,12, -4, -7, 0, -2, -2, -3, -15
1503942516430,-7, 10, -4, 6, 0, -3, -4, -1
1503942516437,-12, 1, 0, -13, -12, -4, 2, 1
1503942516452,-5, -4, -5, -7, 6, 2, -1, -9
1503942516459,10, 3, -3, -7, 4, -3, -4, 2
1503942516470,2, 10, 2, 4, 6, 2, 1, 3
1503942516482,-32, -19, -8, 2, 0, -2, -1, -7
1503942516490,-11, 10, 4, 3, -1, -1, -5, 6
1503942516497,15, 7, -8, -2, -1, -2, 3, -1
1503942516512,4, -2, -6, 2, -18, -9, 0, -6
1503942516519,6, 15, 5, -2, 4, 0, 1, 4
1503942516528,4, -9, -4, -3, -5, -2, -2, 9
1503942516542,-14, -14, 0, 0, -2, 1, 0, 7
1503942516550,4, 5, 3, 4, 3, 1, 1, -2
1503942516557,23, 11, -2, -1, 5, 3, 2, 0
1503942516573,3, -4, 3, -1, -21, 0, -4, -6
1503942516580,-2, 0, 9, 1, -2, 0, -1, -3
1503942516588,2, 0, -1, -4, -4, -3, -6, 4
1503942516604,-31, -25, -5, 4, 16, 2, 0, 0
1503942516610,-28, -15, -2, 0, 5, 3, 0, -2
1503942516617,-12, -7, -2, 1, -2, -8, -6, 7
1503942516633,0, 6, -9, -2, 9, 1, 5, 12
1503942516643,5, 16, -4, -3, -12, -3, -4, -24
1503942516648,14, 18, 3, 4, 0, 2, 6, 4
1503942516662,-9, 1, -4, 0, -1, 1, -4, -9
1503942516672,-8, -17, -3, 1, -1, 2, 2, -4
1503942516678,0, -8, -5, -6, -3, 0, 4, 14
1503942516693,-10, -8, -5, 9, -11, -5, -3, -19
1503942516700,4, -1, -5, -1, 6, 3, 5, 4
1503942516709,-3, -3, -2, -9, 1, -2, 0, 0
1503942516722,18, 13, -2, -3, 7, 2, 6, 3
1503942516730,1, 5, -3, -3, 0, 1, -3, -1
1503942516740,-4, -1, -4, -7, -9, -4, -8, 9
1503942516753,-16, 25, 7, 6, 8, 1, -2, -14
1503942516760,19, 4, -2, 5, -3, -3, -2, 11
1503942516768,-22, -4, -2, -3, 4, 1, -6, 0
1503942516782,7, 17, 5, 4, 1, 0, -2, -12
1503942516790,2, -6, -8, -5, -2, -3, -5, -7
1503942516806,14, -9, -5, -5, 3, -3, -2, -6
1503942516814,-45, -27, -9, 6, 23, 7, 13, 25
1503942516820,-10, 0, 1, 2, 2, 3, 0, 5
1503942516828,-4, -12, -1, -5, -12, -1, -6, -1
1503942516843,-8, -2, -8, -6, -10, -4, -5, 1
1503942516851,13, -6, 6, 7, 0, 2, -2, -4
1503942516857,-3, 11, 1, 0, -5, 1, 1, -9
1503942516877,10, 1, 2, -5, -7, -1, -4, 0
1503942516880,-19, -6, -1, 3, -3, 0, 2, 4
1503942516888,19, 7, 8, 2, -16, -2, 4, 5
1503942516902,-11, -9, 1, -2, 6, 6, 1, 0
1503942516912,3, 4, -8, -5, -6, 0, 2, -1
1503942516917,10, -2, 3, 1, -4, -9, -6, 0
1503942516933,-8, 9, 0, -3, 3, 6, 8, 15
1503942516940,0, 1, 0, 16, 1, 0, -4, -20
1503942516948,31, 10, -1, -8, -9, -12, -8, -8
1503942516962,-31, -22, -1, -4, 29, 2, 4, 1
1503942516970,-3, -6, -2, 1, 9, -1, -2, -7
1503942516978,0, -6, 2, 3, -2, 1, 2, 2
1503942516999,-1, -19, -6, -1, -6, -4, -1, 5
1503942517000,-8, 4, 9, 7, -5, -4, -8, -2
1503942517009,28, 9, -4, -13, -20, 0, 2, -1
1503942517022,30, 14, -7, -11, -8, -1, 6, -1
1503942517030,-4, 0, 5, -2, 10, 1, -8, -3
1503942517037,10, 2, 1, 0, 13, 7, 0, 7
1503942517052,29, 6, -3, 5, 20, 1, -4, -18
1503942517059,-25, -48, 0, -1, -10, 3, 9, -7
1503942517067,0, 10, -4, 3, 14, 3, -4, -19
1503942517082,3, 12, -3, -8, -12, -7, -4, -5
1503942517090,-21, -8, -8, -3, -11, -5, 0, 4
1503942517097,23, 11, -4, -3, 8, -2, 2, 10
1503942517112,-26, 1, 4, 1, -5, -2, -2, -1
1503942517119,-28, -4, -10, -5, -11, -1, -5, -11
1503942517127,-18, -13, -3, 4, 0, 2, -1, -1
1503942517142,-22, 3, 4, 2, -19, -14, 0, -2
1503942517150,25, 16, 5, 0, -8, -1, 2, 6
1503942517157,23, 16, 1, -3, -1, -3, -3, 9
1503942517174,-9, 1, 0, -3, 7, 1, -1, 2
1503942517179,-25, -4, -4, -2, -4, -7, 2, -1
1503942517180,30, 12, 1, 1, 6, 2, -1, 2
1503942517187,-49, -44, -9, -5, -4, -5, -5, 5
1503942517202,10, 7, 0, -2, -2, -5, -11, 0
1503942517210,22, 5, 5, 5, 4, 10, 1, -5
1503942517217,-9, -35, -8, -1, 0, 0, -4, -9
1503942517232,33, 27, 3, 3, 1, -4, 11, 18
1503942517244,33, 20, 3, -3, -10, -3, -4, 9
1503942517255,-12, -6, -6, -4, -2, -4, -6, -13
1503942517262,-34, -5, -2, 0, -1, 1, 4, 3
1503942517270,-4, 8, 1, -2, 1, 0, 3, -8
1503942517278,-18, -6, 4, -4, 0, 0, -3, 0
1503942517293,-7, -8, -7, -5, -5, -1, -6, 13
1503942517299,2, 5, -2, -3, -3, 3, -4, -19
1503942517314,-20, -13, 1, 3, 1, -1, -3, -3
1503942517322,0, 12, -1, -2, 1, 5, -4, 6
1503942517330,-9, -13, -7, -3, 0, 2, 4, -11
1503942517344,-12, 2, 0, 2, 0, -2, 8, -13
1503942517354,-11, -3, 0, 2, 2, -3, -1, 0
1503942517359,-30, -25, -9, -1, -2, 5, -6, -3
1503942517377,3, -4, -1, 2, 1, -2, -3, -18
1503942517382,-14, 2, 0, 0, -1, 1, 2, -29
1503942517390,-25, -38, -6, -4, 0, -5, -6, -2
1503942517404,0, -1, -3, -3, -8, 8, 4, -4
1503942517413,35, 26, -3, -4, -5, -5, 2, 8
1503942517420,-3, -3, -5, 2, 3, -5, 2, 18
1503942517434,8, 3, 1, 1, 3, 6, 3, -1
1503942517443,45, 6, -15, -11, -3, -6, -9, 29
1503942517450,-3, -5, 0, 12, 8, 3, 8, -10
1503942517464,26, -7, 7, 20, 6, 0, 8, 2
1503942517472,6, 9, -8, -4, -2, -1, -2, -31
1503942517480,26, 7, -4, -6, 2, -4, 7, -1
1503942517501,-2, -2, 5, 2, -4, -3, -8, 15
1503942517502,-42, -8, 0, -4, -1, -3, -2, -16
1503942517512,6, 5, 0, -5, -4, -1, 2, 20
1503942517524,13, 3, 1, -3, 1, -2, 0, -2
1503942517533,-10, 1, -5, -5, -4, -4, -1, 4
1503942517539,-7, -16, -3, -3, 1, 5, -1, 12
1503942517554,17, 14, 6, -1, 0, 1, 1, 2
1503942517562,-29, -35, -5, -6, -6, -6, -9, -10
1503942517570,-17, 2, 8, 3, 2, -2, -8, -5
1503942517584,12, 26, 6, 1, 2, 5, 6, -7
1503942517592,27, 20, 9, -1, -1, 1, 1, 9
1503942517599,2, 13, 2, 0, -3, -4, -5, -10
1503942517614,-1, -9, -8, -5, -1, -2, 5, 18
1503942517622,-3, 7, 3, 3, 0, 0, -1, 5
1503942517630,-69, -19, -5, -2, -2, -1, -5, -56
1503942517644,23, 14, 3, 1, 1, 1, -3, -5
1503942517645,-52, -13, -4, -2, 0, -2, 7, 28
1503942517653,-3, -6, -2, -1, 0, 0, 4, -12
1503942517659,-19, 7, 5, 1, 2, 2, -3, 24
1503942517674,15, 6, 6, 1, -1, 0, -4, 25
1503942517683,-8, 13, -3, -14, -1, 0, -2, -16
1503942517690,29, 7, -2, 0, 1, -1, 1, 19
1503942517704,-11, -8, -2, -2, -2, -1, 1, -8
1503942517705,52, 9, -9, -6, -4, -4, -5, 27
1503942517713,21, 13, -5, 0, -2, -2, 2, -2
1503942517720,11, 0, -1, 1, -5, -1, -1, -27
1503942517734,13, 0, -6, 1, -3, -3, -5, -4
1503942517742,-2, -3, 2, 3, -2, 0, 0, -9
1503942517750,19, 8, -1, -2, -2, -3, 4, 32
1503942517764,8, 2, 2, 5, 3, -1, 0, -11
1503942517772,-14, -5, -2, -1, 1, 1, -3, -4
1503942517780,23, -2, -2, -1, -2, -4, 3, 65
1503942517794,-9, -10, 2, 1, 5, 0, 1, 20
1503942517802,-10, 0, -6, -8, -4, -3, -13, -44
1503942517813,-42, -18, -3, -2, -3, -2, -2, 18
1503942517825,-5, 2, 7, 1, 0, 2, 1, 10
1503942517832,21, 10, -3, -4, -3, -5, -7, -55
1503942517839,-12, -2, -13, 2, 0, -2, -3, -12
1503942517855,-13, -2, -3, 0, -4, 4, -1, -5
1503942517862,-25, 0, -1, 3, 2, 1, 3, 12
1503942517870,31, 9, -3, -4, -1, -3, 3, 3
1503942517885,-12, -6, 7, 3, -1, -1, 1, -8
1503942517893,-2, -2, 2, 1, -1, 0, -2, 27
1503942517899,17, -1, -2, 0, -1, 2, 4, -6
1503942517916,1, -2, -9, -8, -5, -4, 1, 7
1503942517922,-1, -8, -4, -2, 0, -1, -5, -5
1503942517930,-26, -5, -5, -2, 0, -2, -2, -32
1503942517946,1, 12, -2, -3, -2, -2, -1, -42
1503942517953,-17, -3, -1, 3, 0, -2, -5, -15
1503942517960,18, -7, 2, 17, 3, 4, 3, 1
1503942517975,-9, 2, 3, 3, 3, 0, -3, -9
1503942517982,-5, -3, 1, -3, 1, 0, 0, 6
1503942517990,8, -3, -6, -2, 0, 3, 3, 5
1503942518004,-7, -3, 0, 5, -2, -7, -3, 8
1503942518014,1, 3, -2, 4, 1, 1, 5, 4
1503942518019,-3, -7, -10, -12, -7, -5, -2, 8
1503942518035,-1, 0, 7, 15, 4, 4, 2, 1
1503942518042,18, 15, -2, 0, 0, 0, -4, 0
1503942518051,2, -6, -1, -1, -2, 0, -2, -9
1503942518064,-7, 1, 3, -2, 4, 5, 5, 5
1503942518072,-9, 1, -14, -13, -9, -3, -2, -2
1503942518081,-9, -4, 0, 8, 6, 3, -2, -2
1503942518095,-9, -2, 0, 2, 3, 3, -3, 3
1503942518102,-2, -5, -2, -19, -5, -3, -1, 2
1503942518110,7, 10, 5, 10, 8, -1, 1, 9
1503942518124,5, -4, -5, 1, -6, -4, -3, -4
1503942518133,14, -13, 6, -9, -3, -3, -3, -3
1503942518139,19, -4, -7, -1, -2, -2, 0, 2
1503942518156,-8, 1, -8, -2, -6, -1, -2, -2
1503942518162,1, -13, -10, -6, 0, 0, -1, -7
1503942518170,6, 3, 7, 9, 0, -4, -6, -5
1503942518185,-10, 3, -2, 9, -1, -3, 7, -11
1503942518192,-12, 4, -2, 23, 0, -1, 4, -3
1503942518199,-4, -17, 1, 7, 2, 0, -6, -1
1503942518216,5, -2, -5, -15, -4, -1, 2, 0
1503942518223,-35, 5, 7, -3, -1, -2, 1, 11
1503942518237,-10, 0, -2, 0, 0, 2, -2, -7
1503942518245,7, 8, -5, -16, 2, 1, -3, -13
1503942518253,-8, 0, 1, 4, 4, 0, -5, -4
1503942518267,7, 14, 0, -1, -5, 1, 1, -19
1503942518275,-23, -12, -10, -20, -8, -1, -2, -1
1503942518282,5, 12, 6, 0, 4, 3, 0, 5
1503942518297,-3, -2, -10, -14, -7, -6, 0, 3
1503942518304,-12, -7, 3, 5, 0, -1, -1, 7
1503942518313,26, -3, -1, -6, -2, 1, 5, 3
1503942518327,-31, -4, -5, 5, 4, 5, 0, -3
1503942518335,13, -7, -9, -7, -3, -2, -1, 4
1503942518342,15, 10, -7, 3, -1, -1, -2, 15
1503942518357,-8, -1, -14, 10, 1, -1, -1, 4
1503942518364,3, 4, 0, -1, -7, -3, 2, 4
1503942518372,15, 7, 4, 1, 0, -1, -2, -8
1503942518387,45, -4, -1, -9, -6, -3, -5, -2
1503942518395,-12, -7, 4, -9, 4, 2, -5, -7
1503942518402,-11, -2, -9, -19, -3, 0, 4, 11
1503942518418,4, -14, -3, -14, -1, 0, 5, 27
1503942518425,16, 1, 2, 5, 3, 1, 1, 6
1503942518432,60, 0, 7, -6, -6, 1, 8, 13
1503942518447,-17, -13, 5, 7, 3, -2, -1, -5
1503942518455,-25, -4, -2, 2, -4, -2, -1, -7
1503942518462,-3, 12, 8, 9, 8, 2, -3, -14
1503942518477,-11, 1, 1, 12, 0, -3, -7, -5
1503942518484,7, -10, -13, -10, -8, -3, -4, -10
1503942518493,-43, 0, 13, 12, 6, -2, 0, -8
1503942518507,6, 21, -5, -5, -5, -1, 0, 8
1503942518515,-15, -1, -1, 1, -1, -3, -3, -1
1503942518522,-18, -13, -8, -6, -4, -3, -3, 13
1503942518537,-49, -2, -4, -3, -1, 0, -5, 0
1503942518544,11, 2, 0, -4, 0, 4, 9, 10
1503942518552,24, 11, 5, 7, 2, 2, 2, 35
1503942518567,-5, -8, -3, -3, -3, -3, 0, -4
1503942518575,-2, 4, -2, 3, 1, 0, 2, -8
1503942518584,-4, 7, 18, 7, 2, -1, -5, -8
1503942518597,16, -6, -21, -16, -6, -1, 3, -12
1503942518604,-9, -10, -8, -2, -3, -4, -3, -11
1503942518612,17, -6, -9, -12, -2, 3, 2, 14
1503942518627,-3, 0, 6, -5, 3, 0, -4, 9
1503942518635,-13, 8, -4, 0, -1, 0, -4, -9
1503942518642,-10, 0, -1, 5, -4, -3, -4, -12
1503942518657,6, 4, 1, -10, -3, -2, -6, -28
1503942518664,-2, -6, -7, 0, 0, -2, -1, -8
1503942518672,5, 1, -1, 2, -3, -4, -6, -12
1503942518694,-12, -6, -3, 1, 0, -2, 1, 3
1503942518697,1, -2, 4, 4, 1, -1, 1, 8
1503942518702,34, -14, -10, -6, 2, -1, 0, -9
1503942518720,-9, -6, -1, 4, 7, -1, -2, -6
1503942518725,11, 0, -4, -3, -3, -3, 0, 2
1503942518732,1, 7, -3, -9, -4, 0, 2, -3
1503942518747,-5, 5, -1, -1, -4, -1, -1, -4
1503942518757,-15, 1, 2, -2, 0, -2, -3, -7
1503942518762,-14, -2, -4, -1, -3, -2, -1, 0
1503942518788,-6, 1, 4, 3, 1, -1, 2, 32
1503942518793,46, 5, 5, 4, 22, 1, 0, -1
1503942518807,-2, 2, 1, 8, -8, 2, 1, -7
1503942518815,-24, 4, -3, 5, -5, -3, -4, -12
1503942518822,-7, -2, 1, -6, -3, -2, -1, -8
1503942518837,2, 0, -1, -2, -14, -2, 0, 1
1503942518844,-4, 2, 10, 14, -10, -1, -3, -6
1503942518855,-16, -4, -6, -15, -14, -5, 2, 4
1503942518867,-6, -1, -5, -8, -2, 0, 3, 2
1503942518875,11, 0, 4, 5, 5, -2, -5, -1
1503942518882,-4, 4, -3, -3, 8, 0, -5, -8
1503942518897,-2, -4, -12, -8, 7, -1, 0, 0
1503942518904,-12, -1, 2, 12, 29, 6, 1, 3
1503942518914,10, -6, 1, -8, 8, -2, 7, 5
1503942518927,13, 9, 14, -1, -2, -5, -4, -8
1503942518935,-35, -1, -4, 10, -5, -1, -3, -4
1503942518942,-15, -3, -5, -8, -7, 1, 3, 0
1503942518962,8, 2, -4, 0, -3, 1, 0, -1
1503942518965,7, -3, -7, -3, -3, 2, 5, 0
1503942518972,-12, 2, 0, 1, -46, -8, 3, -3
1503942518989,-36, -9, -3, -17, 9, -1, -6, -5
1503942518996,-5, 15, 7, -11, -2, -5, 0, -5
1503942519002,-28, 10, -17, -1, -9, -3, 0, -2
1503942519017,-5, 9, 2, 4, 3, 3, -1, -1
1503942519031,40, 2, 0, 6, 0, 0, -1, 3
1503942519044,17, -5, -6, 6, 1, 2, 2, -1
1503942519047,9, -12, -15, -1, -12, -2, -3, -2
1503942519055,-10, -16, -2, -7, 10, 0, -7, -7
1503942519082,-27, -13, 0, -8, -18, -6, 1, 12
1503942519083,8, 9, 2, 2, 5, 4, 2, 10
1503942519084,22, 15, 3, 1, 0, 1, 3, -1
1503942519100,-18, -4, -6, -4, -2, -2, -4, -5
1503942519107,8, 10, -3, -8, -8, -2, -6, -13
1503942519115,-7, -5, -4, 1, 1, 2, 0, -5
1503942519122,-27, -14, -13, 3, 5, -1, 3, -29
1503942519168,34, 9, 3, -7, -1, 1, -6, -3
1503942519169,-17, -3, 13, 11, 11, 2, 9, -2
1503942519175,21, 5, -4, -1, -3, -1, -8, 5
1503942519189,18, 7, 1, 3, -21, -5, -4, 2
1503942519198,2, 1, 0, 0, -9, -1, 7, 1
1503942519204,6, -1, -2, -14, 6, 2, 3, 17
1503942519222,10, 2, -3, 5, 3, 7, -2, -4
1503942519227,-18, -7, -7, -1, -13, -4, -5, -8
1503942519235,-3, -2, 0, -6, 3, -3, -1, -6
1503942519249,-14, -4, 0, 6, 6, 0, -5, 3
1503942519257,-6, -6, -5, -4, -3, -5, 0, -4
1503942519264,9, 14, -2, 11, -8, -5, -10, 1
1503942519279,0, -7, -5, -6, -13, -5, 0, -1
1503942519291,-18, 7, 7, 7, 15, 3, 3, -4
1503942519296,-15, -4, -9, -2, 0, 2, 0, -1
1503942519309,4, 14, 4, 0, 6, 4, 5, 4
1503942519317,6, 11, 8, 13, 23, 1, 0, -2
1503942519324,11, -8, 2, 2, -6, 0, 13, 24
1503942519339,-1, 3, 5, -1, -1, -1, -1, 2
1503942519347,-6, 1, 9, 5, 4, 0, -3, 19
1503942519360,20, 5, 3, -8, -17, 4, 3, -4
1503942519369,-5, -16, -6, -5, 13, -1, 2, -10
1503942519377,-5, -6, 0, 2, -7, -3, -7, -9
1503942519384,25, 5, -11, -8, -29, -5, -8, -23
1503942519399,-40, -37, -3, 0, 36, 5, 6, -12
1503942519400,-2, -1, -4, 3, -5, -1, 1, 4
1503942519407,-10, -14, -11, -3, 4, -4, -1, -7
1503942519415,4, -4, 1, -8, -9, -7, -6, -11
1503942519429,-2, 7, 5, 0, -1, 4, -5, 1
1503942519437,-33, -11, -6, -5, -1, -1, 1, 10
1503942519444,3, -12, -2, 7, 12, 1, -6, -1
1503942519460,-22, -20, 0, 4, 6, 0, -9, -11
1503942519467,-6, -10, -5, -2, -1, -3, 0, -1
1503942519475,18, 0, -8, -2, 19, 0, 5, 6
1503942519491,3, -1, 1, -7, -2, -11, -7, 0
1503942519497,1, 6, 5, 0, -5, -2, -3, 16
1503942519504,33, 8, -5, 5, 10, -2, -3, 2
1503942519519,1, -8, -3, 1, 9, 5, 7, 3
1503942519527,23, 14, 2, -6, -16, 0, 2, 18
1503942519535,7, 9, 4, 11, 9, 6, -2, -2
1503942519549,-15, -27, -2, -9, 12, 7, -5, -9
1503942519558,-20, 17, -16, -13, -11, -5, 2, 4
1503942519565,-11, 4, -5, -3, -10, -7, 2, 6
1503942519579,0, -9, -1, -2, -1, 2, 1, 1
1503942519587,39, 23, -4, 1, 0, -2, -2, 2
1503942519595,-9, 7, 6, -2, -4, 2, 3, -14
1503942519609,-16, -8, 1, 2, -15, -1, -1, 0
1503942519617,29, 6, 1, -2, 4, 4, 4, 2
1503942519625,-44, -7, -4, 1, 3, 4, 0, -9
1503942519639,-49, -27, -2, 6, 4, 9, 2, 1
1503942519647,-24, -11, -1, -2, 4, -1, 15, 4
1503942519655,27, 4, 10, 8, 7, -5, -5, 10
1503942519669,2, -14, 5, 0, 2, -1, -1, 12
1503942519677,11, 10, -2, -1, -6, -5, -5, -15
1503942519684,3, 3, -2, 2, 0, 2, 2, -2
1503942519700,-6, -10, -1, -2, 31, -8, -17, -7
1503942519707,0, 9, -8, -8, -7, -3, -3, -11
1503942519715,-22, 7, 6, 2, -5, 8, 4, -6
1503942519729,-29, -9, -2, -5, -1, -3, -4, -2
1503942519737,-3, -5, -8, -7, -24, -11, 8, 8
1503942519744,6, 13, 0, 5, -1, 3, 0, 1
1503942519760,-17, -7, -7, -5, -10, -5, 2, -12
1503942519768,46, 0, -5, -2, 36, 8, -3, 7
1503942519775,-37, -29, -15, -10, -14, 0, -10, -37
1503942519789,-9, 1, 3, -1, -21, -12, 2, -7
1503942519797,5, -15, -9, -13, -27, -1, 7, 17
1503942519804,-30, -9, -15, -9, 6, -5, -4, -24
1503942519819,9, 12, -3, -8, -8, -1, 0, -2
1503942519827,-9, 9, -1, 4, -2, -1, 3, 5
1503942519836,7, 15, 4, 5, 6, -4, -11, -2
1503942519849,25, 8, 6, 4, -2, 6, -1, -7
1503942519857,1, -6, -3, -10, -17, -3, -2, 15
1503942519865,-3, -12, -1, 11, 21, 11, -1, 4
1503942519879,18, 15, 8, 5, 5, -1, 10, 6
1503942519887,-17, -1, 1, -3, -23, -13, -4, -12
1503942519895,-22, 5, -3, 0, 11, 1, 6, -12
1503942519909,3, -30, -2, -3, 3, -4, -9, -9
1503942519917,1, -1, 1, 0, -2, -2, -4, -9
1503942519926,-38, 4, -9, -4, -8, -1, -7, -9
1503942519939,-36, -18, 0, 4, 48, 0, -8, 3
1503942519947,18, 15, -1, 5, 5, 17, 11, 19
1503942519955,10, 33, 4, -9, -1, -2, -17, -2
1503942519969,-10, -17, -6, -6, -1, -2, -4, 3
1503942519977,16, -3, -3, 4, -9, -3, 5, -4
1503942519985,11, -4, -4, -8, -14, -10, -3, -16
1503942520000,28, -3, -9, 8, 0, 9, 14, 12
1503942520007,-7, 4, 2, 0, 4, 0, -1, -8
1503942520015,46, 16, 5, 1, -10, -3, -15, -2
1503942520029,25, 29, -1, -7, -18, 6, 15, 1
1503942520037,-9, 8, -4, -1, -17, -5, -1, 3
1503942520044,-20, -1, 0, -3, 1, -5, -5, 23
1503942520069,7, 8, -4, 0, -3, -7, -9, 5
1503942520070,33, 20, 9, 5, 6, -4, 0, 0
1503942520082,6, -14, 1, 0, 4, 6, 7, -11
1503942520089,-16, -23, 1, 3, -5, -2, -7, -11
1503942520097,-28, -11, -6, -4, 17, -5, 2, 3
1503942520111,0, -4, -1, -1, 2, 7, 11, 22
1503942520119,31, -1, -3, -1, -11, 6, 10, -5
1503942520128,-11, 3, -8, -4, -3, -15, -21, -21
1503942520142,-15, 4, 8, 6, 5, -3, 1, 9
1503942520148,5, -1, -3, 3, 5, 4, 3, -12
1503942520157,-8, -38, -4, -2, -6, -5, -7, -14
1503942520171,23, 9, 18, 6, 7, 2, -3, 1
1503942520179,-13, 0, -1, 0, -1, -3, -4, 6
1503942520187,14, -4, -2, -5, -4, 2, 5, 27
1503942520202,0, -1, 0, -1, -1, 11, 22, -15
1503942520208,-3, 0, 1, 3, 1, -2, 4, -6
1503942520217,-36, -1, 0, 2, 8, 5, -7, 15
1503942520231,3, -11, 1, 2, 2, -3, 0, 6
1503942520239,29, 23, 5, 4, -2, -4, 1, 23
1503942520247,13, 1, -8, -3, -5, -1, -3, -30
1503942520263,-6, -3, -5, -4, -2, 1, 11, -15
1503942520268,3, 8, -1, -2, -1, -2, -6, -12
1503942520269,-70, -12, -4, -5, -4, -2, -1, 11
1503942520277,8, 9, 1, 3, -1, -1, -1, 13
1503942520291,-33, -14, -5, -1, -4, -3, -17, -33
1503942520300,4, 15, 4, 2, -1, -5, -14, -9
1503942520307,-1, -16, -10, 0, 2, 2, 1, 12
1503942520322,15, -7, -9, -5, -5, 4, 4, -15
1503942520330,27, 3, -2, -3, -1, -1, 4, -11
1503942520337,-6, -2, 2, 1, 1, -2, 1, 17
1503942520351,17, 6, 1, 2, 1, 3, 4, 32
1503942520359,-8, -5, -7, -8, -5, -7, -9, 8
1503942520367,13, 8, 3, 1, 5, 2, 0, -3
1503942520382,7, -4, -10, -3, -4, -4, -10, 11
1503942520388,-26, 0, 3, 1, 0, -5, 6, 0
1503942520398,-13, -10, -1, 0, 0, 0, -8, -18
1503942520411,22, 15, -5, -2, -4, -2, -1, 2
1503942520419,-7, -5, 6, 2, 0, 1, 2, -1
1503942520427,-8, -4, -3, 1, 2, 2, 5, 3
1503942520442,-16, 0, -4, 1, 2, -1, -6, -20
1503942520448,-30, -8, -1, -1, 1, -2, -4, -8
1503942520457,0, -1, -3, 4, -1, -2, 2, -6
1503942520471,19, -4, 5, -2, 0, 0, 2, 3
1503942520479,12, -2, -2, -1, -2, 0, 1, 1
1503942520487,-1, -3, -6, -7, -4, -4, -5, -18
1503942520502,3, 3, 3, -1, 0, -1, -1, -15
1503942520509,-7, 6, -4, 3, 2, -1, 0, 4
1503942520518,22, 10, -2, -1, -1, -1, 4, 2
1503942520533,-11, 0, -4, 3, -2, -3, -1, -1
1503942520540,8, -2, -4, -2, 0, -2, 0, 11
1503942520547,-57, -13, -2, 0, -2, -3, -4, -9
1503942520562,-2, 3, -4, -3, -3, -1, 0, -9
1503942520571,-13, 1, 0, 1, -2, 0, -4, 4
1503942520577,-30, -7, -5, -1, -2, 0, -3, 2
1503942520591,20, 2, 1, -2, -2, 0, 0, -1
1503942520606,10, 4, -2, -2, -3, -3, -1, 31
1503942520607,-31, -16, -3, -1, 4, 1, -2, -9
1503942520608,15, 6, -4, -4, -6, 0, 2, 4
1503942520622,2, 6, 5, 3, 4, 1, 1, -7
1503942520641,2, -11, 1, -3, -1, 1, 3, -10
1503942520658,11, 5, 2, 0, 2, 0, 0, -9
1503942520659,-10, -2, 0, 1, -1, -2, 3, -5
1503942520667,19, 2, -1, 10, 2, -1, -3, -6
1503942520682,2, 3, 0, -1, -2, 2, 2, 5
1503942520689,-5, -8, -1, -3, -1, -1, 1, 9
1503942520701,-11, -1, -3, -8, -7, 0, -1, 0
1503942520711,-7, -10, 1, 0, 4, 2, -1, 8
1503942520719,-18, -1, 0, -2, -3, -3, -4, -10
1503942520727,3, 5, 5, 6, -9, 4, 4, 2
1503942520742,8, 6, 6, 8, 7, -1, -5, 5
1503942520749,-28, 0, -5, -7, 1, 3, 6, -1
1503942520757,3, 1, -8, -12, 1, -2, -1, 7
1503942520771,-10, 0, -6, -8, -3, -3, -3, -12
1503942520779,-6, 5, 1, 7, 4, -1, -2, -1
1503942520787,-9, -1, -6, -4, -5, -4, 0, 0
1503942520802,14, -2, 0, -9, -9, 1, -2, -1
1503942520809,-14, -1, 4, 20, 8, -1, -18, -9
1503942520817,-10, 0, 4, 4, 2, 0, 0, 3
1503942520831,12, 5, -3, 0, 0, 0, -3, -3
1503942520832,-23, -19, -13, -11, -7, -2, 4, 0
1503942520839,-2, 6, 6, 9, 9, 1, -1, 1
1503942520847,10, 17, 12, 1, -2, -3, 1, 8
1503942520862,14, -4, -5, -2, 2, -5, 2, -1
1503942520869,16, 6, -11, -4, 2, 1, -2, 0
1503942520877,13, 2, -1, 3, -7, 0, 1, 5
1503942520891,6, 4, 6, 3, 3, 1, 3, -8
1503942520900,3, -10, -5, 8, 0, -1, 2, 5
1503942520907,10, 0, -11, -15, 1, 0, 5, 8
1503942520922,-28, -14, -4, -8, -7, -3, -5, -3
1503942520929,-7, 13, 9, 0, 0, -3, -1, 4
1503942520938,-6, -5, -4, -8, -3, 1, -4, -4
1503942520951,26, -1, -5, 9, -6, 1, 6, 5
1503942520959,0, 3, -10, -6, -1, -2, -6, -6
1503942520970,10, 6, 21, 22, 8, 3, 0, -1
1503942520982,-8, -7, -4, -4, 5, 1, -1, -20
1503942520989,-18, -8, -11, -18, -5, -2, 1, 8
1503942520997,3, 2, 10, 10, 5, 3, 1, 8
1503942521011,-31, -16, -6, -3, 2, 0, 2, 11
1503942521019,4, 4, 4, -5, -1, 2, -3, -6
1503942521036,-31, -15, -10, -9, -3, 0, -8, -8
1503942521042,-1, 2, 0, 0, -8, -6, -6, 3
1503942521049,3, -2, 7, -5, -1, -2, -7, -16
1503942521064,-18, 0, -2, 4, -3, -1, 1, 0
1503942521072,22, 15, 2, 8, 4, -1, -3, -4
1503942521079,7, -5, -10, -13, -2, -3, 0, -5
1503942521093,12, -11, 0, 3, 3, -3, -3, -2
1503942521102,-17, 1, 12, 16, 5, 1, 0, -6
1503942521110,11, 9, -5, -7, -8, -4, -3, -8
1503942521124,3, -4, 3, 3, 5, 1, -4, 6
1503942521131,3, 1, -5, 1, -5, -2, -1, -2
1503942521139,14, 9, -5, -4, -3, -1, 5, 3
1503942521153,-9, 15, 3, 3, 7, 2, 2, 1
1503942521162,-8, 0, -7, -2, 0, 0, 4, -15
1503942521169,-10, -7, -7, 5, -1, 1, -1, 3
1503942521184,-10, -1, -3, 18, -2, -2, -5, 3
1503942521191,19, -10, -19, -24, -6, -2, 7, -1
1503942521199,24, -6, -10, -7, -4, 0, -4, 0
1503942521214,4, -3, -9, -10, -8, 0, 1, -4
1503942521222,0, -11, -3, -18, -8, -2, 1, -3
1503942521229,-14, -17, -6, -13, -6, -3, -6, 1
1503942521245,15, 4, -2, -6, -2, -1, -1, -2
1503942521251,-3, -7, 9, 3, 4, -3, -4, -9
1503942521259,-7, 2, 1, 10, 6, 2, -2, 15
1503942521274,9, 7, -3, -10, -6, -4, 2, 2
1503942521282,-22, 3, 28, 1, 2, 1, 5, 6
1503942521289,43, 13, 9, 2, 4, 0, -5, -3
1503942521305,-12, -1, -1, -1, 2, 1, 1, -3
1503942521313,6, 0, 4, 4, -2, -2, -6, 0
1503942521320,18, -2, -7, 7, -3, 0, 2, 11
1503942521334,-15, -4, 0, 5, -2, -1, -1, 1
1503942521342,-31, -2, 0, -4, -1, -2, 0, -3
1503942521359,-26, 2, -4, -2, 2, 2, 0, 1
1503942521364,33, 10, -6, -5, -5, -5, -3, -6
1503942521380,0, -13, 31, 12, 0, -1, -1, -11
1503942521381,-20, -10, -10, -7, -4, -5, -11, 0
1503942521394,-12, 4, 7, 21, 11, 3, -2, 11
1503942521405,7, 4, 2, 3, 2, 2, 4, -13
1503942521410,28, 5, -2, 0, -1, 0, 2, 3
1503942521424,-3, -3, -12, -10, -3, -3, -2, -3
1503942521431,8, 5, -7, 0, 4, -1, 6, 16
1503942521441,3, 5, 19, -2, 3, 1, -4, -1
1503942521454,-14, 1, -8, -1, -1, 5, 8, -4
1503942521462,-2, -4, -20, -21, -9, -4, -2, 14
1503942521471,-5, -5, 3, 3, 4, -1, -1, -25
1503942521484,-2, -4, -6, 0, -1, -1, 2, 6
1503942521491,0, -7, -16, -10, -11, -4, -6, -12
1503942521499,-3, 0, 4, 4, 5, 3, 1, -5
1503942521515,1, 3, -3, 0, 2, 0, 1, 6
1503942521522,1, 2, -5, -1, -3, -1, -4, -7
1503942521529,-9, -2, -8, 0, 5, 0, -2, 8
1503942521545,-9, -16, 5, 9, 5, 0, 2, 6
1503942521551,5, -3, -9, -14, -9, -5, -3, 3
1503942521559,9, 4, 5, 18, -1, 0, 3, 8
1503942521574,13, 10, -4, -5, -5, -3, -3, 2
1503942521582,-9, 1, -3, -9, -8, 3, 0, -12
1503942521589,-4, -1, -7, -9, 3, -1, -1, 2
1503942521606,6, -2, 1, -3, 11, 1, 4, -4
1503942521611,-8, 0, 4, 0, -2, 3, 2, -1
1503942521619,-3, -1, -4, -5, -10, -3, -7, -6
1503942521635,-9, 0, 5, 8, 4, -1, -1, 1
1503942521642,-13, 2, -8, -5, -19, -5, -6, -2
1503942521657,29, 0, -4, -4, 0, -1, -3, 1
1503942521664,0, 3, 0, -4, -6, -1, 3, -3
1503942521674,-7, 2, 3, 14, 18, -1, -1, 5
1503942521679,7, 1, -4, 0, 3, -3, -6, -7
1503942521695,-4, 1, 2, -1, 1, 0, 7, -3
1503942521702,-8, -2, -5, 1, -13, -11, -5, -6
1503942521717,-5, -8, 0, 23, 29, 8, -3, -4
1503942521724,-5, 0, -3, 4, 27, 11, 6, 1
1503942521732,9, -3, -3, -4, -11, -4, -6, -5
1503942521741,20, 3, 5, -11, -27, -8, 0, 1
1503942521755,-13, 4, -6, -8, -17, -5, 0, -1
1503942521762,2, -1, -5, -8, 3, 0, 1, 1
1503942521777,13, 10, 1, -10, -16, -5, -5, 1
1503942521785,-16, 9, 1, 8, 13, 6, -5, 0
1503942521792,-17, -4, -3, 18, 11, 0, 7, 0
1503942521799,10, -10, -2, 7, 15, 3, 1, 2
1503942521816,-9, -8, 4, -6, -4, 1, 6, 9
1503942521822,-6, 4, 1, -2, -24, -5, -3, 19
1503942521840,9, 1, -10, -17, -22, 1, -3, -1
1503942521844,10, -2, -1, -3, 17, 0, 3, -6
1503942521852,10, 11, 12, 11, 31, 3, 3, 2
1503942521859,0, -2, -5, -2, 3, -5, -9, -7
1503942521876,1, -9, -2, -8, -11, 1, -2, -1
1503942521883,8, -7, 6, 0, 17, -5, -3, -8
1503942521898,-27, -8, -6, -9, -19, -3, -6, -2
1503942521904,10, 7, 4, 6, 8, 3, 4, 1
1503942521905,-12, -8, -1, 8, 12, 3, 5, 3
1503942521914,-5, -1, 2, -5, -4, -4, -5, -2
1503942521919,0, -5, -4, -10, -21, -4, -3, 0
1503942521935,7, 5, -2, -5, 7, -5, 0, -3
1503942521942,2, -8, -6, 9, 1, 7, -2, -8
1503942521958,10, 15, -1, 5, -11, -4, -6, -8
1503942521964,-12, 6, -7, -4, -8, -4, 2, -8
1503942521974,8, 0, 1, 5, 2, 5, -1, -1
1503942521988,4, 9, 0, -4, -7, -3, 1, 13
1503942521995,-11, -3, 0, 0, 12, 1, 4, -38
1503942522002,17, 7, 2, -2, -8, 0, 3, 0
1503942522018,-2, -2, 1, -6, -5, -3, 0, 19
1503942522024,14, 6, -1, -3, 3, -3, -8, -7
1503942522033,6, 0, -3, 1, -5, -2, -4, 11
1503942522050,-34, -15, -1, 1, 18, 1, 3, 14
1503942522056,-13, -10, -8, -2, 0, -4, -5, 6
1503942522072,-2, 0, -6, 2, -10, -1, 3, -11
1503942522080,-17, -5, 0, -6, 4, 0, 6, -7
1503942522085,0, 1, 2, 0, -4, 1, 3, -6
1503942522129,-7, 2, 5, 2, 5, 0, -5, -8
1503942522139,-8, -1, -1, 0, -5, 1, 6, 2
1503942522145,-3, -7, -7, -6, -13, -3, 0, 1
1503942522153,-6, 3, -9, -6, -14, -3, -3, -2
1503942522167,-2, 9, 3, 5, 4, 1, 5, -4
1503942522178,-3, 2, -3, -5, -2, -5, -1, -1
1503942522182,12, 3, -3, -1, -11, -5, -10, 9
1503942522197,3, 2, 0, -3, 4, -4, 0, 16
1503942522204,19, -2, 3, 4, 0, 0, -1, 17
1503942522212,6, 4, 6, 2, -5, -1, -5, -6
1503942522227,-10, -4, -2, 5, -1, 0, 1, -7
1503942522235,0, 3, 3, 2, -1, 3, -2, 1
1503942522243,3, 4, 3, 4, -4, 0, -6, -13
1503942522258,-7, 4, -5, -3, -22, -1, 1, -11
1503942522265,-8, -14, -10, 0, -2, -2, -2, -21
1503942522273,13, 1, -3, 9, 7, 4, -3, 13
1503942522287,-13, -1, -4, -6, -7, -1, 0, -6
1503942522295,-10, -6, 4, -8, 31, 13, 7, -1
1503942522302,9, 5, -4, -2, -3, 1, -3, -10
1503942522317,-9, -7, 0, 2, 8, -1, 2, -7
1503942522324,-6, -2, 0, -2, 2, 0, 0, 8
1503942522332,-11, -5, -3, 3, 21, -5, -14, 12
1503942522347,-7, -5, -3, -3, -16, -8, -1, 4
1503942522356,31, 7, 0, 2, -3, 0, 1, -8
1503942522362,-12, 20, 2, 7, 8, -1, -5, 3
1503942522378,2, -6, -4, -6, 12, 3, 0, -7
1503942522385,-4, -5, 1, -1, 17, 9, 8, 1
1503942522392,-5, 2, 0, -1, -15, -3, 7, 2
1503942522407,-1, -7, 1, -3, -12, -2, -1, -4
1503942522418,12, 14, 10, 6, -13, 2, 11, 5
1503942522422,-14, 9, -4, -1, -5, -1, -8, -21
1503942522438,-21, 1, 0, 1, -9, -3, -1, -5
1503942522445,15, 2, -6, -6, 2, 6, 1, -1
1503942522453,10, 5, 0, 3, 16, 5, -7, -8
1503942522467,11, 1, -4, 1, -30, -4, -1, 8
1503942522475,11, 3, -4, 1, -18, -4, -3, 7
1503942522482,14, -2, 6, -1, 5, 2, 4, 9
1503942522497,-14, -10, -7, -6, -12, -9, -3, 0
1503942522507,-5, -1, -3, -2, 10, -1, 8, 2
1503942522518,11, 19, 5, 1, 10, -4, -5, -8
1503942522527,-3, -2, -6, 0, 5, -4, -3, 11
1503942522535,-28, -9, -8, -1, -19, -3, 1, 2
1503942522542,13, -3, 6, 4, 29, 4, -6, -2
1503942522557,-22, -1, -1, -3, -5, -7, -4, -13
1503942522564,-10, 5, -1, -3, -7, -4, 1, 5
1503942522572,-9, -1, -2, 6, 17, 4, -1, 13
1503942522588,0, -3, -7, -2, -4, -1, 2, -6
1503942522595,8, -9, -9, -3, 4, 1, -1, 2
1503942522602,-17, -2, 2, 1, -5, -1, -1, -2
1503942522617,15, 1, 3, -4, -8, -5, -2, -6
1503942522624,-12, -12, -5, -1, -1, -2, 1, -2
1503942522632,-5, 0, 1, 7, 42, 15, 3, 1
1503942522647,9, 3, -3, -2, -3, -4, 0, -5
1503942522657,-19, 1, -6, -6, -16, -12, -5, -9
1503942522662,25, 3, -1, -1, 3, -1, -5, -4
1503942522679,14, -5, -6, -6, -10, -3, -5, -2
1503942522684,-15, 8, 3, 0, -9, -1, 6, 4
1503942522699,4, 2, 4, 1, -9, -3, 2, 6
1503942522707,14, -8, -4, 0, 3, 1, -9, -5
1503942522716,6, 2, 2, -1, -5, -1, 1, -2
1503942522722,-20, -3, 1, 1, 2, 4, 8, 9
1503942522738,-16, -12, -5, -5, -8, -2, -1, 0
1503942522747,-2, 6, 0, -5, -3, -4, -8, -3
1503942522753,20, 1, 3, 3, -2, 1, 8, 13
1503942522767,-15, -8, -4, 1, 1, -3, -1, -6
1503942522775,-1, -1, -2, -5, -5, -1, -2, 9
1503942522782,-1, 2, 0, 4, 4, -1, 0, -3
1503942522797,-31, -23, -10, -2, -2, -3, -13, -15
1503942522804,2, 15, 5, 1, 0, 2, 2, -3
1503942522815,5, 7, -5, -3, -2, -1, 0, -8
1503942522827,0, -3, -2, -4, 0, 1, -3, -13
1503942522835,-19, 0, -5, 3, 0, 2, 4, -9
1503942522842,-15, -2, -3, -3, -6, -4, -2, 3
1503942522859,-2, -2, 1, -2, -1, 1, -3, 0
1503942522864,-9, -6, -3, -3, -1, -2, -7, -9
1503942522881,-34, -5, -5, -1, 3, 1, 1, -2
1503942522882,44, 15, 3, 1, -2, 0, 2, 4
1503942522887,1, -4, -2, -2, -2, -2, -4, -23
1503942522895,0, 4, 4, -1, 0, -3, -7, -5
1503942522909,1, 0, -3, -3, 0, 1, 0, 14
1503942522928,4, 3, -4, 0, -1, -1, -2, -20
1503942522939,-13, -10, 5, 4, 1, -6, -8, -2
1503942522949,-3, -1, 3, 4, 2, -2, -11, 6
1503942522956,2, -2, -6, -4, -3, 3, 13, 4
1503942522969,33, 9, 2, -1, -1, -1, -2, 20
1503942522977,15, 6, -5, 1, -1, 0, -3, 4
1503942522989,-4, -4, 5, 1, 0, -2, -6, -3
1503942522990,5, -1, -1, 1, -2, -1, 1, 7
1503942523000,1, -7, 7, 0, 4, 7, 10, 9
1503942523007,-5, -8, -3, 1, -1, -2, -1, 2
1503942523019,2, -4, -4, -2, -3, 1, -1, -10
1503942523029,-8, -6, -5, -4, -4, -1, 1, -1
1503942523038,16, 17, 14, 7, 5, -1, -5, 0
1503942523044,-9, -8, -10, -3, -3, -1, 4, 5
1503942523060,7, 1, -7, -6, -5, 1, 2, 0
1503942523067,3, 6, 4, 2, 1, 1, -5, -1
1503942523075,-11, -3, -9, -4, -2, -2, 4, -2
1503942523091,1, -3, 4, -3, -2, -3, -8, -7
1503942523097,4, 4, -2, -1, 1, 4, -2, 5
1503942523104,-4, 4, 1, 1, 0, -1, 5, 21
1503942523121,19, -9, -4, 0, -2, -3, -3, -4
1503942523127,-7, -10, -8, -3, 2, 1, 1, 1
1503942523135,-4, -10, -9, -1, 2, -2, 3, 1
1503942523151,-4, -5, 0, 0, -4, 1, 5, -2
1503942523160,8, -2, 1, -4, -6, -5, -8, -15
1503942523164,-2, 5, -1, 0, 1, -3, 0, -4
1503942523179,-7, 10, 11, 2, 2, -1, -3, 3
1503942523187,5, -9, -3, -1, -2, -5, -5, 10
1503942523196,-5, -6, -5, 2, -1, 0, 0, 2
1503942523209,-6, 0, -3, 2, 2, 1, 2, -7
1503942523219,-12, 2, -1, -3, -1, -3, -5, -3
1503942523225,-1, -3, -8, -5, -4, -3, 0, -5
1503942523239,-10, 3, 0, 1, -1, -4, -3, -3
1503942523247,-5, 2, 6, 2, 5, 1, 1, -6
1503942523255,-13, -3, -5, -8, -4, -1, -3, 0
1503942523269,-4, -1, -5, -1, -2, 1, -1, -4
1503942523277,3, 3, -2, 1, 0, 0, 2, -1
1503942523285,-3, 5, 4, -3, 1, 2, 1, -1
1503942523299,0, 6, -2, 0, -1, 1, -2, 1
1503942523307,-8, 1, 0, -1, 2, -1, 0, -9
1503942523318,10, 1, 2, -1, 2, -1, -4, -3
1503942523329,-9, 1, 0, -7, 0, -1, -1, -1
1503942523337,-16, -1, -4, -4, 0, -2, -2, 0
1503942523344,26, 13, 4, 3, -5, -3, -1, 7
1503942523361,4, -6, -2, 3, 0, -1, 1, -7
1503942523367,-7, -5, -4, -2, 0, -1, -2, 1
1503942523375,-7, -5, -5, -2, -2, -1, 0, 5
1503942523390,0, -7, -4, -3, -3, 0, 2, 1
1503942523397,-6, -2, 0, 2, 2, -1, 0, 18
1503942523404,-9, 3, 0, 0, -1, -2, 0, 12
1503942523420,17, -2, 3, 3, 0, 0, -3, -18
1503942523427,6, 5, 1, 1, 0, 2, 6, 6
1503942523435,-3, -2, -5, -4, -1, 3, 0, 8
1503942523451,-13, -4, -1, -3, -3, -2, -4, -15
1503942523458,-2, 3, 0, -16, 3, 0, 2, 0
1503942523464,-3, -1, -4, -3, 3, 1, -2, 3
1503942523479,-2, -4, -5, -4, -9, -3, -1, -2
1503942523487,2, -1, 7, 11, 8, -1, -1, 2
1503942523495,3, -1, -2, 6, -4, 0, 3, 1
1503942523509,11, -5, -12, -10, -7, -1, -3, -2
1503942523519,7, 5, -9, -14, -8, -3, -5, 1
1503942523524,11, -2, -7, -9, -8, 2, -3, -1
1503942523539,-4, -2, 3, 3, 2, 1, 1, 4
1503942523547,0, 17, 23, 12, -7, 1, 3, -4
1503942523556,-10, 1, 3, 0, -1, -2, -2, -5
1503942523569,-16, -2, -6, -3, 1, -5, -7, -9
1503942523577,-2, 10, 3, 6, 3, 0, 1, 1
1503942523585,9, -13, -15, -9, -3, -4, -2, -1
1503942523600,-20, -16, -17, -16, -7, -4, -1, -6
1503942523607,-11, -10, -6, 1, 5, 1, -3, -1
1503942523615,7, 1, -5, 17, 3, 1, 0, -5
1503942523629,17, 5, 10, 6, 2, -3, 2, 0
1503942523637,16, -8, 0, 2, 0, -1, 0, 1
1503942523644,2, 2, 0, -4, -8, -3, -7, -2
1503942523662,-10, 14, 5, 5, -3, -3, 0, -7
1503942523663,-3, 3, -5, -11, -2, 1, 5, 4
1503942523667,-44, -11, -1, 5, 5, 1, 3, 3
1503942523675,-14, 5, 6, 2, 1, -2, -3, -2
1503942523691,-1, -3, -8, -8, 2, 3, -4, -38
1503942523697,4, -1, -7, -1, 4, 1, -2, -5
1503942523704,1, -3, 5, 3, 5, -2, -1, 9
1503942523720,12, -16, 5, 3, 0, -2, 0, 0
1503942523728,13, -1, -10, 14, 0, 5, 7, 9
1503942523735,11, 20, 13, 13, 4, -1, -1, 9
1503942523749,-25, 4, -2, 3, 1, -2, -1, 3
1503942523753,-8, -8, -7, -21, -5, 0, 2, 2
1503942523759,-6, -2, 9, 0, -1, -2, 2, -4
1503942523764,13, 4, 5, 11, -4, -4, -4, -2
1503942523780,9, 2, -13, -8, -7, -2, -2, 5
1503942523787,33, 12, 4, 10, -1, -3, -3, 5
1503942523796,-14, -7, -13, -12, -4, -2, -3, 13
1503942523809,-6, -2, -5, -11, 2, 0, -1, -1
1503942523819,-7, -1, -5, -7, -1, 1, 0, -10
1503942523832,-9, 14, 9, 10, 3, 2, 5, 4
1503942523840,-9, -16, -2, 4, -4, -1, -5, -17
1503942523847,-4, -10, 15, 0, -2, -3, -1, -4
1503942523862,33, 1, -7, 1, 3, -3, -3, -4
1503942523869,1, -2, -10, -16, -2, -4, -4, -6
1503942523878,-15, 2, 10, 3, 4, 2, 0, 1
1503942523892,6, 1, 18, 16, 8, -1, -6, 2
1503942523907,-23, 5, -7, -1, -3, -2, -5, -4
1503942523908,42, 8, -12, -10, -6, -4, 1, 7
1503942523922,9, 0, 12, 9, 3, -3, -4, -7
1503942523930,-13, -5, -11, 0, -6, 0, 4, 0
1503942523937,14, 7, 2, -2, -1, -1, -1, 4
1503942523953,-5, 6, 9, 1, 2, 1, 3, -11
1503942523960,-21, -8, -5, 9, 3, 1, -3, -3
1503942523967,11, 1, -18, -5, -1, 3, 4, 15
1503942523982,10, -5, -6, -2, -4, -1, 4, -2
1503942523989,-9, 0, 0, 2, 1, -4, -5, 3
1503942523999,-1, 14, -4, 1, 0, -1, 2, 13
1503942524012,-7, 18, 9, -6, -1, -2, -3, -4
1503942524021,-12, 8, 2, 2, 4, 3, 3, -3
1503942524027,-4, -7, 4, 5, -3, 0, -4, -3
1503942524042,1, 1, -9, -17, -6, 0, 3, 5
1503942524049,-8, -3, -1, 4, 0, 0, -2, -2
1503942524058,1, -6, -7, -5, -5, -2, -2, 3
1503942524072,-9, -2, 15, 5, -3, -1, 1, -6
1503942524080,-14, 3, 0, -4, -3, -4, -5, 1
1503942524087,6, 1, -17, -6, -9, -3, 3, 2
1503942524102,3, 1, 11, -10, 4, 2, 3, 4
1503942524109,-15, -2, 1, 9, 7, 3, 0, 5
1503942524117,-18, -5, -6, -5, -5, -4, -10, -5
1503942524132,-1, -8, -10, -11, -6, -2, 2, -4
1503942524140,9, 9, 26, 6, 2, 1, 0, 0
1503942524147,-27, -6, -4, 0, 5, -2, -8, -3
1503942524163,-8, -14, -9, 8, 8, -3, -3, -8
1503942524169,-3, -4, -4, 3, 1, 1, 1, 0
1503942524177,-2, -14, -12, -7, -8, -3, -3, -9
1503942524194,-5, -11, -16, -11, -11, -4, -5, 19
1503942524200,-5, 0, -2, 9, 4, 3, 7, 3
1503942524207,28, 0, 3, -5, -3, 0, 1, -7
1503942524222,-3, 2, 2, 4, 0, -2, -6, 1
1503942524230,-5, 0, -1, -5, -2, 1, 2, -1
1503942524237,4, 3, -3, 1, -1, -2, 1, -6
1503942524253,0, 10, -2, -2, -7, 0, -1, -5
1503942524260,-5, 4, -5, -8, -4, 1, -1, -1
1503942524267,2, 4, 0, -3, 4, 0, -2, -2
1503942524282,2, -1, -5, 5, 16, 0, 1, 0
1503942524290,-6, 1, 0, 6, 0, -1, 2, -5
1503942524298,6, -2, 2, -2, 8, 4, 1, 0
1503942524312,8, -3, -4, -12, -10, -9, -3, -3
1503942524322,-5, 5, -6, 10, 4, -1, -1, -1
1503942524328,10, 1, -8, 3, 5, -2, -2, 1
1503942524342,7, 3, 2, -5, -8, -3, -2, -3
1503942524349,-4, 0, 6, -8, -3, 0, -4, -5
1503942524358,-7, -9, 2, 8, 11, -1, 2, -1
1503942524373,-15, 0, 16, 12, 5, 4, -2, -3
1503942524380,12, 0, -5, -18, -2, -4, -3, 1
1503942524389,2, 1, -7, -3, -10, -4, -3, -5
1503942524402,-1, 11, 0, -13, -23, 0, -2, -1
1503942524409,-8, -5, -4, 4, -11, 0, 1, 3
1503942524417,-10, 3, -1, -12, -17, -5, -3, -2
1503942524432,-11, -10, -4, 4, 3, 3, 1, -1
1503942524440,-19, 4, 1, 2, 5, 3, -1, -1
1503942524447,4, 29, 4, 15, 8, 0, 0, -3
1503942524463,2, -5, 0, 11, 2, 0, 1, 2
1503942524469,11, 4, 5, -7, 17, 3, -1, 7
1503942524477,-3, 2, -4, 6, 0, 1, 3, 1
1503942524492,-17, -24, -7, 1, 4, 4, 4, 11
1503942524500,8, -18, -4, -2, -2, -2, 0, 8
1503942524507,8, 19, 7, -3, -2, -3, -6, -4
1503942524523,0, 2, -4, 2, -4, 0, 0, -5
1503942524529,-9, -9, -7, -6, -2, 0, 8, -3
1503942524538,2, -4, -2, -8, -15, -4, 3, 1
1503942524552,6, -8, -6, -11, 17, 6, 0, -6
1503942524561,3, 1, 7, 13, 13, 4, -4, 9
1503942524567,-24, -6, -6, -1, -2, -3, -5, -8
1503942524582,2, 0, 6, 18, 6, 1, 6, 4
1503942524590,3, -2, -1, 3, -6, -1, -1, 1
1503942524597,13, 2, 1, -7, 2, -1, -3, -18
1503942524612,10, -4, -4, -1, -5, -2, -3, 14
1503942524620,-3, 0, -5, 1, 7, -1, 7, -5
1503942524628,2, -3, -5, -4, -2, -4, 1, -4
1503942524642,-3, 5, 8, -5, -12, -10, -10, -2
1503942524649,-10, -5, -7, -1, 35, 6, 7, -3
1503942524658,8, -13, -1, -11, -24, -4, 0, -9
1503942524672,-8, -1, 3, -3, -19, -3, -3, -11
1503942524680,-21, -7, -9, -5, 12, 0, -1, 4
1503942524687,8, 5, 2, 3, 0, 2, 2, 1
1503942524702,0, -1, -5, -2, -13, -5, 1, 2
1503942524709,0, 2, 1, 14, 17, 1, -2, -11
1503942524717,29, 3, -3, 3, 23, 1, -4, 7
1503942524733,-5, -1, 1, -5, -6, -8, -4, -2
1503942524740,-54, 2, -9, -9, -12, 2, 1, -4
1503942524754,8, 6, -6, -15, -42, -14, -4, 2
1503942524763,-2, -3, -3, -1, -3, 1, 1, 1
1503942524769,15, 0, -4, -9, -11, -2, -3, 10
1503942524784,21, -1, 1, 0, 5, 1, -5, -6
1503942524792,-3, -5, 0, 4, 6, 3, -1, 1
1503942524800,-4, -7, -3, 4, 16, 2, 7, 5
1503942524813,8, 9, -8, -13, -23, -6, 6, 10
1503942524814,-3, -14, 7, -1, -3, 0, -1, -17
1503942524823,2, -2, -1, -7, -18, -4, 0, 6
1503942524829,18, 2, -9, -6, 6, -1, -6, -31
1503942524844,16, 17, 7, 5, 17, 0, -4, -5
1503942524852,-9, 4, -1, -2, 6, -2, 0, 7
1503942524862,-12, -7, -3, -7, 9, 1, -4, -5
1503942524873,-3, -4, -4, 4, -17, 3, 6, 4
1503942524874,9, 7, 1, 13, 25, 4, 6, 20
1503942524882,2, -1, -4, -1, 5, -1, -9, -2
1503942524891,1, -1, -10, -6, -11, 2, 5, 0
1503942524904,-18, 1, -6, 19, -19, -2, 9, -6
1503942524912,-7, -1, -4, 1, -10, -2, -16, 1
1503942524920,-4, 3, 7, 2, 24, 5, -9, 3
1503942524934,-1, 0, -1, 0, -6, 0, 0, 2
1503942524942,20, 14, 5, -10, -5, -6, -4, -2
1503942524949,7, -7, 4, 1, 4, 2, -8, 9
1503942524964,7, 3, 0, -5, -21, -2, -4, -28
1503942524972,-11, 0, -4, -6, -7, -8, 4, 10
1503942524980,3, -10, -2, 0, -5, 5, -3, 1
1503942524994,-26, -4, 0, 11, -11, 2, 6, -12
1503942525002,-17, -12, -10, -9, -10, 1, 2, 7
1503942525010,-11, 6, 7, -5, -11, -4, -7, 6
1503942525026,-3, -4, -8, -8, 11, 5, 6, 0
1503942525032,-16, -2, -14, -7, -2, -7, -1, -32
1503942525040,0, 4, -4, 1, -10, 1, -6, 1
1503942525053,-5, -5, 0, -1, 0, 1, 2, 2
1503942525064,7, -9, 2, -1, -16, -7, -2, 12
1503942525070,32, 17, 3, -3, 3, 2, -2, -32
1503942525084,4, 2, 2, 17, 32, -2, -6, 0
1503942525092,1, -6, -4, -2, 0, 3, 4, 11
1503942525100,11, 9, -7, -11, -15, -4, -5, -7
1503942525113,-26, -6, -1, 2, -2, 0, -7, -13
1503942525122,-16, 0, -2, 10, -7, -2, -2, 1
1503942525130,3, -8, -6, -9, -4, 5, 10, 16
1503942525144,-1, 5, 3, -3, -3, -2, -3, -6
1503942525152,-7, -10, -4, -6, 2, -2, -2, 10
1503942525165,-7, 3, -4, 5, 28, 4, 3, 1
1503942525173,33, 0, 2, 8, 2, -3, -2, 9
1503942525182,-17, -15, 5, 5, -4, -2, 1, -3
1503942525196,-3, 7, 3, -2, 0, -3, -1, 4
1503942525204,-14, -13, -8, -1, 2, -1, -4, 8
1503942525205,13, 9, -4, -8, -10, 4, 5, -26
1503942525219,21, -9, -7, 5, -2, -2, 0, 1
1503942525220,-17, -9, -4, -4, -3, -1, -3, 7
1503942525234,-21, 7, -1, -4, 5, 0, -3, -7
1503942525242,16, -2, 8, 0, 0, 2, 3, 6
1503942525249,-30, -21, 4, 0, -1, -2, -7, -3
1503942525265,11, 3, -2, 3, -9, -5, 0, -2
1503942525272,-16, 8, -10, -3, -3, -4, -2, 1
1503942525280,-43, -23, -4, -6, -8, -4, -4, 4
1503942525294,17, 12, -2, 0, -10, -2, -3, 14
1503942525303,11, -16, -1, 7, 2, 7, -1, 9
1503942525309,35, 5, -8, -4, 2, 0, 4, 0
1503942525324,71, 24, -2, -8, -4, -1, -3, 7
1503942525332,-9, -5, 4, 2, 5, 1, 2, -7
1503942525340,-9, 3, -1, -1, 6, 6, 12, -2
1503942525353,37, 15, -1, -3, 1, 3, 4, 8
1503942525365,14, 12, 3, -2, -5, -6, -3, 13
1503942525370,-16, -7, -3, -4, -1, 0, -2, -5
1503942525384,-34, -5, -5, 0, 3, -2, -4, -18
1503942525393,-10, 2, -2, 6, 13, 3, 1, -9
1503942525400,-21, 6, 1, -2, 4, -7, -6, 1
1503942525414,-22, -1, -1, -5, -4, 8, 6, -10
1503942525422,24, 5, 1, 4, -5, -1, -4, 2
1503942525430,-5, 5, 15, 7, -7, -6, -6, -2
1503942525444,-14, 1, -6, -5, -6, -2, -2, 0
1503942525452,-24, -14, -8, 1, 4, -4, 1, -2
1503942525463,-2, -6, 1, 5, 1, 2, 3, 6
1503942525473,-3, 26, 2, -2, -8, -2, -1, 5
1503942525482,-31, 13, 0, -2, -5, -1, 0, -10
1503942525489,-11, 3, 1, 20, 45, 1, -9, 7
1503942525504,-54, -19, -4, -3, -1, 0, 4, -6
1503942525512,20, -11, -3, 2, -19, -1, 0, -1
1503942525520,-3, -9, -7, -4, 1, -5, -1, -1
1503942525534,19, -4, -1, -7, -5, 2, 7, 10
1503942525542,39, -5, -6, -6, -9, -4, -5, 19
1503942525549,29, 7, -3, -12, -9, -2, -5, -2
1503942525565,18, 14, 2, 4, -1, -2, 1, 1
1503942525572,20, 2, 4, -1, -7, 0, -3, -5
1503942525580,2, 14, 10, 3, 0, -3, -10, -18
1503942525597,60, 12, -6, -13, -5, 2, 4, 4
1503942525602,-7, -4, -4, -10, -36, -10, -9, -15
1503942525609,-79, -23, 2, -3, 1, -1, -4, -4
1503942525624,15, -10, -13, -5, 4, 4, 3, 2
1503942525635,-24, -5, -10, -2, -6, -5, -1, 6
1503942525640,36, 3, 3, 13, -8, 5, 1, 1
1503942525654,30, 0, 0, 3, 3, -6, -2, 2
1503942525664,15, 17, 7, -4, 3, -1, 2, 15
1503942525671,1, 1, 5, 3, 5, 3, 1, 3
1503942525685,-4, -25, 2, 7, 25, 2, 1, 4
1503942525692,-28, 7, 2, -5, -8, 7, 6, -5
1503942525707,-24, -7, -3, 4, 9, 4, -10, -11
1503942525713,-14, -23, -4, -1, -4, -5, 1, 6
1503942525722,29, 22, -1, -7, -6, -6, 2, 4
1503942525736,-11, -9, -1, 4, 2, 0, -5, -5
1503942525744,-60, -25, -8, -6, 5, 0, 3, -5
1503942525752,-6, 7, 0, 1, 3, 12, 2, -3
1503942525767,-4, 4, 1, 7, 29, -1, 3, -2
1503942525773,-8, -6, -2, 2, 17, -10, -5, -6
1503942525782,-3, 17, 0, 0, -10, 3, 2, -3
1503942525798,31, 4, 0, -3, 4, -3, 1, -3
1503942525805,-18, -12, -4, -6, -13, -7, -7, -2
1503942525812,-10, 5, -4, -9, -3, 5, 7, 3
1503942525829,-25, 13, -5, -7, -8, 0, -6, -16
1503942525834,-8, -8, -4, -2, -9, -11, -5, -9
1503942525842,-2, 5, 1, 1, 9, 9, 7, 15
1503942525856,24, 0, -6, -3, -9, -7, -6, -4
1503942525867,3, 0, 1, 4, 4, 0, -1, 1
1503942525873,-29, -32, -5, 6, -9, -2, -6, -2
1503942525887,-2, -12, -4, -9, -3, 1, 1, -7
1503942525893,-27, 0, -4, -2, 0, -2, 2, -12
1503942525902,41, 0, 5, -6, 11, -10, -5, -3
1503942525916,-25, 10, 3, -1, -10, -2, 1, -9
1503942525924,14, -2, 0, -4, -11, 0, 4, 5
1503942525932,17, 8, 13, 23, 13, 1, -6, -18
1503942525947,-15, -20, 1, 7, -1, 6, -1, -4
1503942525953,-14, 21, -7, -8, -5, -1, -3, 3
1503942525964,-27, -1, 1, 5, 0, -1, 0, -21
1503942525976,25, 13, 7, -2, 1, 2, 2, 28
1503942525984,35, 8, -5, -4, -6, -3, -1, 1
1503942525992,-1, 1, 1, 3, 4, 3, 5, 12
1503942526008,19, 16, 3, 4, -4, -3, 2, 16
1503942526013,5, -3, -10, -5, -5, 4, 0, -8
1503942526022,-4, 4, 1, -2, -3, -3, -1, -2
1503942526036,-11, 1, -3, 8, 0, -3, -6, -18
1503942526044,-21, -1, 0, -7, 0, 1, -2, -13
1503942526053,28, 3, 2, -12, -2, -1, -3, 0
1503942526068,-22, 13, 1, 6, -1, -1, 1, 3
1503942526074,-3, -6, -1, -3, -4, -2, -7, -2
1503942526082,6, -12, -11, -6, -1, 0, 4, 9
1503942526099,15, -4, -2, -1, -1, -3, -2, 7
1503942526104,-17, -14, -7, -4, -8, -3, -5, -7
1503942526111,13, -1, -7, -4, -7, -3, 1, -8
1503942526112,-14, 1, 12, 4, 4, 3, -2, 15
1503942526127,1, 1, -1, 2, -2, 1, 3, 0
1503942526133,-7, -8, -13, -11, -11, -7, -2, 5
1503942526142,-24, -10, -8, -10, -2, -1, -8, -11
1503942526156,-43, 1, -1, 18, 1, -1, 1, 0
1503942526167,24, 2, -3, -3, -3, 3, 3, 1
1503942526172,13, -5, -4, -10, -1, -4, -3, -7
1503942526187,6, 4, 0, 5, 1, 0, 1, 2
1503942526193,-9, 0, -3, -5, -4, -4, -5, -6
1503942526203,-6, -15, -8, -4, 1, 0, 4, -16
1503942526216,16, 3, 0, -1, 2, 1, 2, 1
1503942526224,-62, -10, -1, 3, 0, -3, -5, -1
1503942526232,-1, -3, -2, 0, 3, 4, 2, 0
1503942526247,54, 17, 10, 4, 1, -2, -6, 10
1503942526253,-3, 1, -5, -9, -5, 0, 4, 3
1503942526262,28, 5, -1, -2, 1, -2, -2, 8
1503942526276,-4, -6, -4, -8, -2, -1, -1, -5
1503942526284,-10, 2, 5, 6, 1, -2, 0, 15
1503942526291,8, 3, -5, -1, -3, 5, 2, -1
1503942526307,-24, -2, -7, -4, -5, -2, -1, -11
1503942526313,-32, -6, -4, -9, 2, -3, -8, -28
1503942526321,-10, -1, 2, 6, 0, -1, -3, 24
1503942526322,16, 1, 8, 11, 2, 2, 3, 4
1503942526336,-31, -5, 1, 2, -2, -3, 0, 1
1503942526344,0, -8, -3, -1, 0, 0, -1, 2
1503942526352,-12, -12, 6, 2, -1, -1, 0, -1
1503942526353,23, 17, 7, 0, 2, -2, -1, 6
1503942526369,4, 3, -7, -12, 0, 1, -1, 3
1503942526374,3, -9, -6, -3, -2, -1, 0, 0
1503942526382,20, 1, -3, -9, -2, 0, 0, 1
1503942526396,10, -1, 1, 5, -1, -1, -5, -4
1503942526404,0, 4, 0, -10, -2, 0, 6, -1
1503942526412,-16, -2, 0, -4, -1, -2, 0, 4
1503942526427,-27, 0, -3, 0, 0, 0, -2, -5
1503942526434,-27, -11, -10, -5, -6, -3, -2, -12
1503942526442,-24, -6, -8, -13, 0, -3, -2, 2
1503942526459,15, 3, 2, 3, 4, 3, 0, 5
1503942526472,15, 3, -4, -2, -2, -1, 1, 1
1503942526487,20, 0, 3, -7, -2, -1, -3, 1
1503942526493,0, 3, -1, 2, 3, -1, 5, 2
1503942526502,-7, 2, -6, 3, -1, 0, 1, 3
1503942526516,12, -4, 0, 7, 1, 1, -3, 2
1503942526524,17, 7, -1, 1, 0, -1, -2, -4
1503942526533,7, 6, -2, -1, 2, 0, -1, 2
1503942526547,5, 7, 7, 18, 13, -1, 1, 2
1503942526553,5, 2, 1, -5, 0, -2, -2, -1
1503942526562,-9, -7, 0, 1, -1, 0, -2, 5
1503942526577,-5, -4, -1, 3, 0, 0, 0, 2
1503942526584,-1, -7, -1, -2, -7, -1, -6, -2
1503942526591,-5, -3, -4, -9, 7, -5, -5, -2
1503942526607,-7, 4, -1, 2, 1, 6, 3, -1
1503942526614,3, 0, 8, 0, -6, 0, 0, 8
1503942526629,-10, -6, -5, -8, -1, -2, -5, 1
1503942526637,-1, -7, 2, 13, 6, 1, 0, 6
1503942526644,-5, -5, 0, -1, -9, -1, 1, -5
1503942526658,21, 1, -3, -5, -9, -4, 1, -5
1503942526667,-4, 7, 2, -1, 3, -1, -1, 1
1503942526673,-1, 0, -12, -7, -2, 1, 0, 3
1503942526689,16, 0, -12, -14, -7, -3, 2, 2
1503942526696,-15, -9, 4, 21, 7, -3, 1, -5
1503942526705,0, -1, 0, 2, -4, -5, -1, -2
1503942526718,10, -4, 1, -2, -5, 0, -4, -6
1503942526727,5, -4, -21, -21, -11, -6, -1, 1
1503942526735,2, 3, -5, 0, 7, 3, -2, -4
1503942526749,-8, -3, 1, 7, 3, 1, -1, 6
1503942526757,-2, 7, -4, -8, -3, -3, 1, 4
1503942526764,0, 7, 17, 15, 7, 1, 3, -2
1503942526778,-10, 6, 14, 3, -7, 0, 1, -5
1503942526786,-7, -13, -19, -12, 0, 1, -4, -3
1503942526787,-9, 6, 10, 4, 5, -1, -1, -5
1503942526794,4, -5, -14, -7, -2, -1, 2, 0
1503942526810,21, -1, 2, 0, 3, 2, 0, 0
1503942526816,-21, 0, 1, -7, -5, 0, 3, 0
1503942526817,-13, 1, -8, 4, -2, 1, 1, 4
1503942526824,-14, -3, -5, 6, -1, 1, -1, -3
1503942526839,0, -5, 1, 9, 2, -2, -4, 0
1503942526847,-14, 0, -4, 7, -3, -4, -9, -8
1503942526854,3, -7, -18, -14, -9, 2, -1, 1
1503942526869,-4, -2, -10, 0, -5, 0, -3, -1
1503942526878,-9, -2, -9, -8, -4, -1, -5, -1
1503942526884,5, 2, 11, 5, 0, 1, 6, -1
1503942526903,19, 1, 11, 6, 1, -1, -5, -8
1503942526907,15, -5, -4, 0, 2, 0, 0, 0
1503942526914,10, -1, -7, -9, 0, -4, 2, 5
1503942526929,6, -1, 8, 5, 3, 0, -2, 2
1503942526937,-15, -1, -2, -9, 3, 1, 2, 1
1503942526944,-13, -4, -3, 0, -1, -4, -3, 1
1503942526958,-20, 5, -1, -8, -6, 0, -2, 1
1503942526968,4, 2, -9, 7, 2, 0, 4, -1
1503942526974,16, 8, 15, 16, 5, 4, 2, -9
1503942526989,-11, 3, 4, -13, -9, -4, -5, -5
1503942526996,-9, -6, 12, 10, 4, 0, -1, -9
1503942527004,11, -5, -16, -13, -8, -1, 4, 0
1503942527020,-37, -5, 31, 29, 3, 1, -2, -3
1503942527027,-1, -10, -11, -5, -4, 2, 2, 1
1503942527042,3, -2, -12, -2, -4, -2, -1, 4
1503942527043,11, -1, -8, -19, -10, -4, -2, 0
1503942527049,-26, 1, -4, -10, -7, -1, 1, -7
1503942527058,2, -6, -14, -12, -8, -3, -3, -2
1503942527064,9, -7, -7, -4, 2, -1, -1, 2
1503942527080,-16, 4, -2, 8, 8, 2, -3, -8
1503942527086,9, -2, 10, 17, 3, -1, 2, 13
1503942527104,13, -3, -3, 7, 3, -1, 2, 9
1503942527109,-37, 0, -6, -9, -1, -3, -8, -4
1503942527117,0, -1, -8, -5, -6, -2, -1, 7
1503942527124,16, -7, 2, -6, -2, -3, -4, -4
1503942527140,0, 4, 6, -4, -8, -6, -2, -4
1503942527147,-9, -11, -17, 5, 0, -1, -1, -8
1503942527162,10, -1, -9, 4, 1, 0, 3, 1
1503942527170,34, 8, 0, 2, 1, 0, -1, 2
1503942527178,15, 6, -11, -17, -9, -4, 2, 3
1503942527184,-22, 5, 2, -4, 3, 4, 6, -4
1503942527204,-8, 4, -2, -6, 1, 1, -2, 1
1503942527207,-10, -4, 13, -2, 4, -4, -5, -7
1503942527222,10, 11, 5, 4, 1, 1, 1, 2
1503942527229,-1, 10, -2, -10, -5, -6, -8, -6
1503942527238,-17, -4, 9, 6, 6, 2, -4, -13
1503942527245,-9, -1, -6, -4, -1, 1, -2, 1
1503942527260,-3, 0, -5, -5, 2, 2, 5, 0
1503942527267,-5, -7, -5, 0, 0, -1, -6, -7
1503942527282,3, -11, -8, -2, -9, -2, 0, 3
1503942527289,-7, -2, -1, 2, 3, 0, 7, 0
1503942527297,-4, 2, -9, -6, -4, -3, -3, 1
1503942527305,0, 18, 31, 27, 13, 5, -5, 4
1503942527320,0, -3, -10, -9, -3, -1, 1, -2
1503942527326,5, 3, 3, 9, -4, -2, -4, 5
1503942527327,-14, -2, -9, -10, -5, -2, 2, 1
1503942527342,-8, -2, 2, 5, 15, 1, -2, 1
1503942527349,-1, -5, -9, -4, -1, -3, 1, 5
1503942527357,3, 1, 0, -3, -1, 0, -2, 5
1503942527364,4, 0, -2, 1, 2, 2, 3, 4
1503942527380,6, 1, 0, -3, -2, -3, -7, -2
1503942527386,3, -3, -2, -16, -6, -8, -8, -6
1503942527403,14, -4, -1, -2, -3, 0, 4, -1
1503942527409,1, -2, -3, 0, -13, -5, -2, -5
1503942527417,-8, 1, 16, 3, 6, -2, 1, 0
1503942527424,4, -2, 3, -3, -1, 3, -1, 0
1503942527440,9, -3, -7, 3, -4, -2, 1, 2
1503942527447,-9, -3, -3, 1, 8, 2, -1, -1
1503942527462,-3, -3, -3, -6, 0, -1, 0, -1
1503942527472,12, -1, -4, 3, 7, 1, 3, 0
1503942527478,-4, -2, -6, -4, -4, -2, -3, -2
1503942527484,10, 10, 3, 8, 16, 1, 1, 1
1503942527500,6, 7, -3, 1, 3, -2, -2, -2
1503942527507,-6, -8, -4, -2, 3, -1, -1, -1
1503942527508,-11, -4, -9, -6, -9, 0, 1, -2
1503942527522,-5, 3, -3, -1, -3, -1, -1, 1
1503942527529,16, 1, 7, 2, -2, 0, -1, 2
1503942527539,-7, -3, -16, -10, -7, 0, -4, -5
1503942527545,8, 4, -6, -5, -1, 0, 1, -2
1503942527560,-4, -10, -1, -11, -4, 0, -4, -4
1503942527567,4, -2, -5, -20, -15, -1, -1, 0
1503942527582,25, 13, 10, -3, 4, 0, -2, 4
1503942527589,-18, -7, 6, 4, 20, 2, 2, -4
1503942527598,1, -1, -5, 0, -9, -2, 1, -1
1503942527612,0, 4, 9, 10, -8, 0, -3, -2
1503942527620,0, -3, -2, 8, 3, -1, -2, -2
1503942527626,-60, -18, -10, -11, -8, -3, -3, -6
1503942527642,-8, -5, 15, 2, -6, -1, 0, -4
1503942527649,29, 4, 2, 5, -2, -1, 0, 2
1503942527657,10, 2, 5, 6, 3, 1, 2, 0
1503942527672,15, -4, 1, 2, -5, -1, -1, -2
1503942527680,9, -3, -8, -11, -3, 2, 3, 6
1503942527681,9, 5, 10, 19, 20, 2, -3, -2
1503942527687,16, 1, -3, 10, -3, -1, -2, 2
1503942527702,-17, 1, 3, -1, -8, -4, 0, -2
1503942527709,-11, 3, -8, -4, -3, -3, -5, -2
1503942527717,-20, -1, -6, -11, -3, -2, -3, -3
1503942527731,1, 12, 3, 21, 2, -1, 0, -11
1503942527749,11, -5, -6, -11, -3, -3, -3, -1
1503942527762,-14, -7, -3, -2, -1, 1, 1, -1
1503942527769,-5, -1, 4, 4, 3, -1, -1, 1
1503942527778,-8, -9, -13, -11, -27, -5, -2, -1
1503942527792,-12, -2, -1, -3, -7, 0, 0, -1
1503942527799,-9, -4, 2, -3, 2, -3, -11, -6
1503942527800,0, 7, 1, 0, 1, -2, 2, -6
1503942527807,0, -1, 4, -3, 18, 3, 2, 4
1503942527822,1, 10, -1, -1, 3, -1, 1, -2
1503942527829,-9, -1, 0, 2, -3, 1, 1, 7
1503942527839,9, -15, -9, -4, 0, -1, -2, 3
1503942527852,3, 3, 2, 3, -3, -1, 0, 1
1503942527860,-6, 1, 2, -1, 2, 3, 0, -5
1503942527866,5, 0, -2, 0, 2, 0, -2, 3
1503942527883,-30, -2, -1, -3, 2, 1, -1, -3
1503942527889,1, -6, -10, -10, -3, -3, -2, -6
1503942527908,-1, 9, -3, 2, 1, 1, -2, 1
1503942527912,-19, 0, -5, -8, -14, -3, -1, -4
1503942527920,-11, -9, -1, -2, -2, -1, 1, 2
1503942527926,18, -1, 2, -3, 3, -1, -2, 15
1503942527942,-24, -10, -3, 3, 4, 0, 0, -6
1503942527949,4, 6, 1, 4, -8, 0, 2, -9
1503942527957,-9, -15, -1, 0, 0, -4, -4, 2
1503942527974,-13, -6, -10, -6, -4, -4, -6, -2
1503942527979,16, 1, -5, -5, -9, -2, 0, -6
1503942527986,-5, 4, 2, 0, -4, -1, 0, -9
1503942528002,-4, -9, -15, -16, -1, -1, -2, -1
1503942528003,12, 15, 10, 21, 3, 2, 1, -3
1503942528010,-30, -21, -6, -1, 1, 2, 2, 9
1503942528018,41, 15, -5, -9, -4, -2, 1, 11
1503942528032,7, 7, 17, 9, 5, -1, 0, 1
1503942528040,-20, 5, -2, 5, -1, -1, 6, 7
1503942528041,4, -2, -2, 2, 2, 1, -6, -15
1503942528047,16, 14, -9, -9, -10, -2, -4, -9
1503942528062,0, 3, 1, -1, -2, -2, -3, -9
1503942528069,-19, -6, -6, -4, -4, 1, 1, -3
1503942528079,12, -1, -6, -6, -1, 0, 1, -4
1503942528092,-9, -11, -7, -2, 1, -4, -4, -18
1503942528099,22, 11, 5, 4, -5, -2, -1, -5
1503942528100,-38, -10, -2, -3, -1, 2, 1, -6
1503942528108,5, 15, 6, -1, 3, 1, 0, -6
1503942528122,6, -1, -2, -4, 0, -2, -2, -1
1503942528129,7, -18, -7, -5, 0, -2, 3, 7
1503942528142,-7, 0, -3, -1, -2, -3, -2, 10
1503942528152,35, 22, 2, 0, 2, 0, -5, 7
1503942528160,4, 0, -2, 0, 2, -2, -6, -13
1503942528166,11, -9, 1, -1, -1, -1, 0, -4
1503942528167,2, 7, 2, 2, 2, 1, -8, 4
1503942528182,38, 3, 1, -7, -3, 1, -2, 9
1503942528189,-24, -5, -5, -1, -4, -2, -1, -3
1503942528198,-15, -10, 0, -1, 1, -1, 2, 8
1503942528212,-4, -4, 2, -1, -5, -1, -3, -26
1503942528219,-15, -14, -4, 1, 2, -1, -5, 6
1503942528220,0, 1, -2, 1, -5, -1, 1, -5
1503942528226,-13, -12, -3, -1, 1, -1, 2, 2
1503942528244,-1, 11, 6, 9, -2, 4, -7, -14
1503942528250,33, 4, 1, 2, 4, -5, -8, -16
1503942528257,-23, 1, 4, -4, 2, 1, 9, 25
1503942528272,2, 4, 2, 2, 2, 3, 3, 14
1503942528280,14, 1, -3, -1, -1, -1, -3, -10
1503942528287,5, 1, -5, -2, -3, -8, -3, -23
1503942528303,-26, -8, -10, -6, -1, 5, 12, 2
1503942528309,-39, -6, -3, 0, 5, 2, 1, -2
1503942528318,17, 9, -3, -1, 1, -7, -11, -22
1503942528331,55, 28, 0, -2, -4, 7, 6, 19
1503942528342,-37, -18, -5, -11, -1, -10, 1, -12
1503942528347,-4, 4, -7, -1, 0, 3, 2, -27
1503942528362,23, 5, -8, -6, 0, -2, 5, 22
1503942528369,-2, -7, -1, 1, -1, 0, 1, 7
1503942528378,-21, -17, 1, 7, -2, -4, -6, 16
1503942528392,-16, 9, -1, -2, -3, -4, 3, 9
1503942528399,-8, 14, -1, 1, -2, -3, -5, -20
1503942528409,16, -10, -2, 3, 4, -6, 1, 9
1503942528422,7, 9, 0, 3, -1, 22, 0, -9
1503942528437,-49, -6, -8, -1, -1, 1, -3, -14
1503942528438,14, -15, 2, 5, 1, -6, -4, -6
1503942528452,-32, -27, -1, -2, -1, 0, 5, -10
1503942528460,-14, -2, -4, -3, 2, -3, -2, 8
1503942528467,33, -6, 0, -1, -3, -4, -6, 15
1503942528483,14, 10, -5, -1, -8, -3, 3, 1
1503942528489,-11, 9, 2, -1, 0, -1, 4, -14
1503942528504,-14, -19, -2, 3, 7, 2, 3, 36
1503942528512,21, 6, 1, -2, -4, -6, 3, -14
1503942528514,4, -4, -4, -4, -1, 5, -3, 6
1503942528520,-2, 0, 2, -3, -9, -5, -8, -18
1503942528534,60, 36, -1, -2, 3, 6, 7, 8
1503942528543,-16, -6, -13, -7, -3, -3, -6, -27
1503942528549,-3, 9, -2, 0, 3, 6, 4, -40
1503942528550,0, -16, -7, -5, -7, -9, -29, 1
1503942528564,17, -3, 7, 1, 6, -5, -4, 6
1503942528572,19, 20, -2, 1, 2, 9, 5, 47
1503942528580,-20, 6, 7, 4, 2, -4, 0, -1
1503942528594,25, 2, 20, 3, -7, 2, 2, 21
1503942528602,-5, 7, -1, -3, -8, -4, 9, 26
1503942528610,-55, -20, -12, 2, 4, 3, 1, -31
1503942528624,52, 13, 9, 2, -1, 0, -5, -56
1503942528631,-19, -5, -6, -6, -5, -9, -4, 13
1503942528640,25, 0, -5, -3, 0, 4, 4, 7
1503942528654,1, -6, 1, -1, 1, -2, -5, -21
1503942528662,20, 8, -1, -8, -7, 5, -4, 44
1503942528669,-10, -8, -5, -8, -18, -9, 8, 17
1503942528685,-24, -7, -6, -3, 0, -7, -5, -33
1503942528692,31, 11, 2, 2, 5, 0, 3, 7
1503942528700,24, 21, 13, 10, 4, 6, 8, 32
1503942528715,-59, -12, -5, -2, -1, -5, 0, -7
1503942528722,-41, -8, 0, -1, 5, 5, 9, 8
1503942528729,20, -18, -3, -1, 3, -1, -7, 22
1503942528745,8, -10, -1, 1, 2, -4, -9, -4
1503942528753,6, -13, 2, 5, 3, -2, -1, -4
1503942528759,-37, -19, -10, -5, -4, -7, -4, -28
1503942528774,-8, 4, 1, 0, 7, 1, 0, -1
1503942528783,1, 1, -5, -3, -7, -7, -1, -12
1503942528789,-22, 0, -1, -2, 2, 2, 3, -13
1503942528804,-52, 16, -3, 4, 5, 1, -4, -24
1503942528812,-5, 1, 0, 4, 1, 3, 1, 3
1503942528821,8, 2, -5, -6, -1, 7, 5, 31
1503942528834,12, 17, 2, 1, 2, 2, 8, -5
1503942528845,1, -4, 3, 1, -1, -6, -1, 0
1503942528850,7, 2, -4, -4, -6, 7, -7, 0
1503942528864,2, -10, -6, -3, 1, -3, 2, 7
1503942528872,-36, -13, 2, -3, -3, -5, -2, -10
1503942528881,-6, -16, 3, 2, 3, 3, -8, -20
1503942528894,22, 11, -7, -11, -8, -4, -9, 0
1503942528902,-7, 5, 0, 3, 2, 6, 0, -36
1503942528912,-30, -18, -3, -1, -1, -2, 3, 27
1503942528931,-40, -7, -7, -4, -3, -4, -8, -17
1503942528932,8, 7, -1, 6, 5, 6, -3, -13
1503942528939,29, 0, -2, -6, -1, 0, 4, 26
1503942528954,-7, -1, -5, -5, -5, 3, 4, 1
1503942528962,13, 1, -2, 3, -4, 3, -10, 15
1503942528969,-17, -14, 1, 0, -1, -9, -5, -30
1503942528984,-27, -9, -3, -10, -3, 1, 3, 0
1503942528991,-9, 9, 2, 2, 8, 0, 2, 14
1503942528999,6, -7, -2, 4, 11, -5, 2, 9
1503942529014,1, -4, 3, -1, -17, -11, -2, -8
1503942529029,22, 7, 1, 8, 22, -1, 4, 11
1503942529030,17, 8, -9, -7, -7, -3, -4, -22
1503942529046,4, -11, 11, 5, -15, -6, -4, 7
1503942529052,24, 6, 1, 4, -9, 4, 4, 12
1503942529059,3, -6, -6, -4, -12, -3, -17, 3
1503942529074,5, -1, 2, -5, -23, -7, 5, 11
1503942529082,8, -8, -8, -9, -8, -4, -1, -9
1503942529089,-25, -5, -1, 1, -2, 0, 5, -3
1503942529104,-12, -5, -4, -4, -30, 0, 1, -3
1503942529112,2, 10, -4, -13, -26, -3, -1, -4
1503942529119,5, 4, -12, -5, 9, 12, -1, 2
1503942529134,18, 12, 7, 2, 15, 7, 6, -2
1503942529142,-13, 1, 0, 0, 3, -5, -9, -3
1503942529149,-10, -11, -7, 2, 20, 8, 5, 6
1503942529164,5, 26, -7, -2, 19, 4, 17, -13
1503942529172,2, 12, 6, 9, 8, 7, 12, 5
1503942529180,-4, 7, -1, -4, -12, -6, 1, -3
1503942529194,-22, -22, -3, 11, 15, 5, -11, 0
1503942529202,-3, 7, -2, 0, -9, 6, 14, 0
1503942529209,-57, -29, -10, -8, -7, -2, -12, -14
1503942529224,-23, -18, -2, 3, -1, -3, 0, 0
1503942529231,-23, -8, -2, 5, 5, -16, -20, -8
1503942529240,-3, 11, 6, 2, 2, -6, 5, 17
1503942529255,2, 5, -10, -7, -3, 2, 3, -17
1503942529262,25, -4, -1, -4, -4, 5, 2, -3
1503942529269,23, 6, -1, -2, -11, -9, -9, 7
1503942529284,-2, 7, 5, 5, 12, -1, -11, -6
1503942529292,-1, 25, 5, 4, -7, -2, 5, 2
1503942529300,13, -18, -9, -3, 15, -7, -8, -11
1503942529314,-13, -43, -9, -2, -11, -12, 1, 14
1503942529323,20, 19, 1, 0, -5, 2, 5, 16
1503942529329,17, 12, 4, -3, 0, 7, 1, 6
1503942529345,-18, 3, -6, -2, 2, -3, -2, -3
1503942529352,-40, -27, 6, 0, 9, -2, -1, 8
1503942529361,6, 0, -1, 1, -5, 0, -3, -6
1503942529374,12, -7, -8, -1, 8, 6, 0, 2
1503942529382,-23, -6, -5, 2, 6, -2, 2, 9
1503942529396,37, 21, 4, 1, 14, -2, 5, 1
1503942529404,0, -17, 0, -1, -10, -2, 0, -1
1503942529414,4, 19, 4, 2, 9, 1, -2, 4
1503942529427,26, 7, -1, -8, -6, 1, -9, -9
1503942529434,-2, 0, -2, 1, -3, -3, 0, -11
1503942529442,-6, 1, 1, 2, -3, -2, -5, -14
1503942529456,-17, 7, -6, -2, 4, 1, -4, 22
1503942529464,-43, -12, -4, -4, -9, -5, 1, -12
1503942529472,39, 3, -3, -3, 1, 3, 10, -18
1503942529487,18, 6, 7, 2, 0, -5, -4, -14
1503942529494,8, 2, -1, -2, -3, -7, -1, -14
1503942529502,22, 2, 1, -4, -2, 1, 1, 22
1503942529516,0, 28, 11, 2, 0, 2, -3, -5
1503942529524,-67, -16, -13, -6, -4, -1, -8, 3
1503942529532,-8, -10, 0, -1, 1, 2, -3, -24
1503942529551,-28, -1, -2, -2, -2, -2, 8, 20
1503942529552,60, 12, 6, 4, 6, -1, 0, 18
1503942529554,49, 9, -7, 0, -1, -4, -11, -39
1503942529562,2, 7, -2, 4, -7, 2, 6, 5
1503942529576,-21, 0, -5, -2, -5, 1, -9, 16
1503942529584,17, 15, 4, 2, 1, 1, 2, -27
1503942529592,0, 0, 16, 6, 2, 0, -5, 1
1503942529607,-33, 4, -17, -7, -5, 0, -4, -30
1503942529615,-2, -13, -14, -7, -2, -7, -15, -31
1503942529623,1, -11, -1, 4, 5, 6, 3, -4
1503942529636,49, 1, 0, 1, -3, 2, 0, 22
1503942529644,-22, -7, 13, 2, 8, -2, 1, 26
1503942529652,-10, -11, -6, -2, -1, -2, -6, -8
1503942529666,35, -3, 2, -1, 9, 0, 6, 33
1503942529674,-38, -19, -7, -2, 1, -1, 16, 44
1503942529690,39, 38, 7, -6, -12, -7, -23, -16
1503942529692,8, -9, -9, 0, -4, -3, -11, -34
1503942529696,-52, 3, -7, -5, -1, 0, 13, -17
1503942529704,18, -14, -6, -6, -8, -5, -9, -13
1503942529712,-25, -1, 4, 2, -2, -2, 0, 0
1503942529727,-42, 2, 1, 1, -5, -1, -3, -5
1503942529734,-4, 14, 5, 2, 1, 1, 10, 25
1503942529742,0, -3, 1, -12, -9, 2, 6, 43
1503942529758,2, 7, 1, -5, 4, 4, -1, 10
1503942529764,-24, 1, -4, -3, -5, -14, 7, -15
1503942529771,-15, -9, -7, -1, 3, 4, -4, -16
1503942529787,0, 7, -4, -3, -1, 4, 3, 9
1503942529794,10, -8, -7, 3, 0, -2, -5, -29
1503942529802,-25, 4, 2, 0, -5, -4, -7, -9
1503942529821,27, 10, -1, -6, -3, -1, -1, -4
1503942529822,-3, -2, -7, -3, -1, 0, -9, -9
1503942529825,14, 3, 8, 13, 8, 7, 3, 15
1503942529832,33, 16, 5, -2, -5, -3, 8, 33
1503942529851,16, 11, 3, 1, 2, 2, 0, -1
1503942529854,1, -11, -5, -1, 31, 7, -4, -6
1503942529862,-3, -10, 1, 2, 1, 3, 7, 10
1503942529877,13, -10, -6, -2, -13, -9, 8, -4
1503942529884,-3, -5, 10, 0, 25, 3, 13, 0
1503942529893,7, -6, 4, -1, 10, 2, -8, -13
1503942529906,16, -4, -11, -3, -24, -12, -1, 33
1503942529917,15, 8, -4, -3, -10, -1, -6, 0
1503942529922,18, 14, -5, 0, 4, 4, -8, -12
1503942529937,-17, -3, 1, 4, 3, 4, -2, 25
1503942529944,-11, 8, -11, -2, -9, 2, -6, -46
1503942529952,-12, -8, -8, -1, -4, -3, 0, -5
1503942529966,16, 9, 1, -1, -4, -1, -1, 2
1503942529974,15, 5, -1, 1, -5, -2, 13, 1
1503942529983,-1, -11, -16, -8, -11, 4, -7, 2
1503942529997,6, -1, -1, -1, -12, -3, -11, 9
1503942530004,-13, 5, -1, 0, 8, -2, 3, 2
1503942530011,-2, 3, -3, -4, -7, -7, -23, -8
1503942530027,-3, 21, 15, 3, 0, -3, 0, 17
1503942530034,5, -2, 3, 0, -5, -3, 0, 0
1503942530042,15, -10, 2, 2, 10, 3, 0, -5
1503942530057,-17, -34, -7, -1, -2, -5, -4, -14
1503942530064,36, -8, -6, -7, -5, -5, -9, -4
1503942530071,5, 12, 6, 2, -1, -2, 4, 8
1503942530087,-39, -20, -6, -2, -3, -9, -13, -33
1503942530094,-16, 17, 2, -5, -22, -16, -16, -60
1503942530102,-11, 10, 6, 2, 8, 8, 0, 21
1503942530119,-1, 28, -7, -3, 6, 9, 6, 3
1503942530124,-11, -12, -5, -3, -7, -2, 1, -51
1503942530131,-11, 12, 6, 6, -3, 0, 0, 30
1503942530146,-30, 6, -5, -6, -10, -8, -7, -29
1503942530154,45, 1, -8, -9, -7, 2, 5, 29
1503942530162,46, -23, -7, 0, -1, 6, 11, -47
1503942530176,-30, -7, 5, 0, 3, -2, -5, -13
1503942530186,-15, 6, 9, 4, 4, -3, 0, 63
1503942530192,-15, -19, -10, -3, -2, 15, 13, 46
1503942530206,-17, -6, -10, -12, -11, -6, -13, -103
1503942530207,-4, -10, 5, 2, 1, -5, -8, -14
1503942530214,10, 0, -2, 1, -2, -6, -4, 40
1503942530223,0, 6, 9, 3, 2, 6, 6, 57
1503942530237,-1, 8, 3, 4, 3, 3, 16, -26
1503942530244,5, -8, -18, -9, -7, -8, -19, 4
1503942530253,1, -14, 1, 6, 8, -8, -2, -47
1503942530266,-1, 6, 0, -4, -4, -11, -7, -63
1503942530274,-7, -14, -1, 2, 5, 8, -8, 33
1503942530282,-3, -14, -18, -7, -10, -4, -12, 2
1503942530297,3, -2, 4, 0, 5, -27, -1, -26
1503942530311,2, 2, 2, 3, -4, 5, 4, 26
1503942530312,3, 5, 8, 5, 6, 10, 3, 12
1503942530327,-2, 14, 5, 2, 7, 13, 14, 35
1503942530334,6, -1, -4, -5, 8, 4, 0, -11
1503942530342,0, -6, -2, 3, -9, -14, 9, 38
1503942530357,0, -2, -5, -5, -7, 2, 6, 26
1503942530365,-6, 13, 9, 3, 0, 8, 6, -8
1503942530378,2, 24, 9, 2, -1, -1, -2, -8
1503942530387,-3, -7, 6, 5, 7, 7, 10, -34
1503942530395,-1, 11, 11, 6, 4, 0, 6, -37
1503942530396,-10, 0, 1, 4, 9, 4, -2, -4
1503942530409,1, -4, -4, -1, 6, -14, -4, -3
1503942530420,5, -2, -9, -6, -7, -9, -5, 29
1503942530427,4, 5, -4, -1, 0, 5, -8, -46
1503942530438,4, 6, -2, -3, -6, 4, -2, -48
1503942530446,0, -8, 1, 3, -2, 3, -1, -9
1503942530456,-3, 16, 16, -2, -6, 5, -1, -1
1503942530469,-9, -10, -8, -10, -7, 2, 5, 21
1503942530476,-2, -10, 0, 4, 0, 3, 0, -27
1503942530486,-1, 2, -5, -1, 11, 1, -8, 35
1503942530498,2, 4, -6, -2, -3, 5, 8, 17
1503942530506,2, -4, -4, -3, -10, 4, 1, 0
1503942530514,0, -6, -3, -1, -3, -6, -7, 13
1503942530529,1, 9, 8, 9, 12, 6, 13, -11
1503942530536,-3, -8, -15, -2, -2, -2, 1, -29
1503942530544,-5, -4, -3, -4, -8, -7, -3, 17
1503942530558,-1, -6, -5, 0, -2, 4, 3, 33
1503942530567,0, 8, -6, -1, -12, 2, -11, -39
1503942530574,-2, 0, -17, -16, -8, -7, -4, -1
1503942530590,-3, 0, 2, -5, 1, 8, 1, -10
1503942530597,2, -13, 2, 4, -3, -1, 2, 4
1503942530604,-1, -8, 13, 5, 2, -6, -10, 16
1503942530620,-2, -11, 8, 7, 6, 1, 1, -34
1503942530628,7, 5, -4, -5, -3, -3, -7, 1
1503942530634,-2, 5, 3, -2, 8, -11, -2, -1
1503942530649,-4, -1, -7, 7, -4, -3, 3, 12
1503942530659,-7, -6, -6, 2, 9, -2, -8, -24
1503942530664,-2, 6, -1, -4, -9, -3, 4, -3
1503942530678,-4, -10, -8, -4, 0, 2, -1, 41
1503942530695,-3, 2, -3, -1, 5, 3, 0, 7
1503942530697,0, 11, -8, 5, -5, 5, -2, -15
1503942530709,-5, -1, -17, -9, -6, -10, -6, -18
1503942530716,-1, 10, 4, -1, -4, -3, -1, 20
1503942530724,-2, -7, 4, -3, -1, 1, 3, 17
1503942530738,-3, 5, -8, -8, -18, -2, -6, -18
1503942530746,3, 4, 7, 6, 2, 3, -11, 20
1503942530760,1, -8, -12, -11, -10, -10, -16, 1
1503942530769,0, 17, 10, -17, -4, -3, -7, -25
1503942530777,3, -8, -6, 13, 16, 1, 2, -15
1503942530787,-7, -27, 0, -1, 0, -2, 2, 10
1503942530798,2, -10, -3, 0, -1, -3, 1, 6
1503942530807,0, 3, 0, 7, 4, -5, -8, -37
1503942530814,2, 4, 10, 4, 0, 3, 22, -27
1503942530830,2, -8, -14, -2, -4, -2, 1, -5
1503942530837,-1, 19, 4, 7, 0, 3, -1, 11
1503942530844,2, 8, 2, 7, 5, 1, 17, 15
1503942530859,0, -18, -2, -7, 10, 4, -1, -30
1503942530867,-2, -24, -8, 1, 0, -1, -1, -2
1503942530874,-4, -8, 0, -6, -7, 3, -10, -14
1503942530889,1, 8, 4, -1, -3, 3, -3, -31
1503942530898,-1, 13, 8, -1, -3, 3, 7, 28
1503942530904,2, 1, 3, 3, -20, -6, -1, -10
1503942530918,0, 8, -7, -5, -17, -5, -12, 8
1503942530928,-4, -14, -6, 1, 2, -2, 10, 3
1503942530934,2, -3, -2, -3, 15, -10, -3, 15
1503942530949,-4, -4, 1, 0, 11, -11, -15, 14
1503942530957,2, -4, -12, -3, 12, 10, -9, 44
1503942530965,3, 15, -11, -5, -3, 1, 1, -25
1503942530978,0, 8, 11, 8, 4, -7, -2, -33
1503942530988,6, 18, 4, 4, 7, 4, 2, -23
1503942530995,-1, 5, -8, -4, -11, -6, 4, -9
1503942531009,1, -15, -1, -2, -2, -6, -1, -25
1503942531016,-5, -4, 0, 0, -2, 7, 3, 8
1503942531024,1, 4, 1, -1, -4, -2, -2, 2
1503942531038,-2, -1, 2, 0, -4, -4, 6, 38
1503942531047,-6, -4, -9, -2, -7, -5, -1, -1
1503942531056,5, -11, 0, -8, -1, 2, -6, -29
1503942531069,-8, -7, 2, 3, 9, 0, -3, 14
1503942531076,-6, 11, 10, -3, -3, -4, -9, 9
1503942531084,-3, 9, 12, 4, 6, 6, 0, 45
1503942531099,-3, 24, 17, 6, -1, 5, 19, 18
1503942531106,3, 20, -7, -3, -6, 8, -1, -4
1503942531114,1, 4, 0, -3, -1, -4, -6, -1
1503942531129,-6, -7, 2, 1, 0, 1, 2, 17
1503942531136,7, 1, -8, 2, 4, -3, -4, -2
1503942531144,-4, -36, -12, -8, -13, -11, -3, -20
1503942531158,1, 0, -10, -4, 1, 4, -3, -36
1503942531167,1, 3, -4, -3, 2, 2, 5, 17
1503942531174,-8, 4, 1, 3, -2, -3, -4, -14
1503942531190,1, -3, -3, -2, -3, -4, -10, -4
1503942531197,-5, 12, 1, -3, -4, -1, -2, 33
1503942531205,-6, -12, 5, 0, 10, 9, 11, 48
1503942531218,2, -28, -9, -4, -2, -3, -1, 12
1503942531226,2, 11, -5, -2, -7, -5, 2, 5
1503942531227,4, 1, -6, 0, 1, 4, 0, 5
1503942531234,-1, -16, 3, 2, -1, 1, 1, 15
1503942531249,-1, 8, -6, -7, -4, -6, -3, -19
1503942531258,1, 2, -3, 3, -2, -5, -1, -14
1503942531264,-1, 23, 0, -3, 0, -4, -15, -11
1503942531278,-5, -1, -1, -2, -1, -2, -4, -31
1503942531286,3, -10, 1, 3, 4, 4, 2, -6
1503942531301,2, 9, 2, -1, -3, 2, 4, -4
1503942531309,1, 3, -5, -1, -5, -7, -5, 26
1503942531316,-2, -9, -6, 0, -3, 1, -1, -60
1503942531332,-4, -19, -6, -3, -2, -1, -1, 1
1503942531338,6, 10, 4, -2, -2, -1, -2, -5
1503942531347,-39, -1, 5, 3, 10, 1, 3, -13
1503942531365,-56, -9, -6, -5, -2, 3, -4, 15
1503942531370,15, 1, -4, -7, -3, 2, 8, -4
1503942531376,44, -5, -2, -5, -3, -3, -1, 9
1503942531392,34, 0, 4, 6, -1, 0, 0, -4
1503942531398,0, 17, 6, 3, 0, 0, -1, 16
1503942531406,-20, 0, -8, -6, -8, -1, -2, -6
1503942531421,17, -11, -11, -3, -6, 1, 5, 9
1503942531429,36, 6, 6, -2, 2, 1, -1, -2
1503942531437,33, -1, -7, -11, -7, -2, 2, 7
1503942531451,18, 4, -4, -4, -1, 4, 0, 11
1503942531460,-3, -14, 6, 7, 3, -4, -4, -6
1503942531467,-5, 8, 3, 2, 4, 2, 1, 5
1503942531481,-4, -8, -10, -1, 13, -3, -5, -8
1503942531491,28, 3, 3, 1, 1, -3, -1, -7
1503942531497,0, -2, 3, -2, -7, 0, 3, -1
1503942531511,-33, -7, -7, 5, -2, -3, -6, -11
1503942531518,2, -3, 0, 7, 5, -2, -3, 3
1503942531527,3, 4, -2, -14, 0, -1, 2, 0
1503942531541,-3, 21, 22, 2, 2, 0, -3, -7
1503942531549,1, -12, -9, 4, -4, 1, -8, -1
1503942531559,9, -11, 2, 6, 1, -3, 4, -5
1503942531578,-24, -17, 7, 4, 4, 1, 1, -3
1503942531579,1, -3, -11, 3, -5, -2, -2, -8
1503942531595,21, 3, -5, 4, 0, -2, -5, -1
1503942531601,-16, -6, -15, -14, -23, 0, 4, 5
1503942531609,14, 13, 12, 6, 3, 3, 0, -4
1503942531616,-10, -12, -2, -15, 10, 0, 3, 6
1503942531632,16, 18, 11, 0, -3, -1, -1, 1
1503942531638,9, 2, -6, 5, 4, 3, 3, 7
1503942531646,-18, -1, -9, -10, -5, -3, -2, -3
1503942531662,-6, -10, -11, -2, -5, -1, 0, -4
1503942531669,13, -4, -14, -3, -5, -3, 4, 2
1503942531676,-13, 14, -4, 3, 4, 0, -2, 2
1503942531692,0, -3, -9, -9, -4, -1, 2, 4
1503942531698,7, -9, 4, 8, 10, 3, 1, -10
1503942531706,-18, 2, 5, 0, -1, -3, -7, -7
1503942531721,-5, -6, 16, 20, 4, 2, 0, 1
1503942531729,16, -14, -7, -5, 0, -4, -2, 5
1503942531737,22, 15, -8, -12, -5, -4, -9, -9
1503942531751,-9, -8, -4, 2, -1, 2, 6, 3
1503942531760,-10, 1, -7, -5, -2, 0, -3, -10
1503942531767,-43, -3, -7, 1, -1, 0, -2, -1
1503942531781,-13, -2, -4, -8, -7, -3, -6, -4
1503942531789,-2, 5, -1, -4, 4, -1, 6, 2
1503942531797,-15, -11, 1, 6, 3, 4, 0, -5
1503942531811,12, -2, -16, -24, -9, -3, -3, 4
1503942531818,-7, 0, -5, 1, -2, -3, 1, 6
1503942531829,3, -11, -15, 0, 0, 3, 1, -13
1503942531841,7, -14, -4, 4, 1, -3, -3, -3
1503942531849,-5, -17, 1, 6, -3, -4, -4, -5
1503942531860,-9, 8, 2, 0, -8, -2, 3, 5
1503942531871,14, -8, -1, -7, -2, -3, -1, -6
1503942531878,4, 15, 3, 4, 2, 3, 1, 0
